7.340207999999999455e-02 1.021007600000000000e+13 4.078577800000000000e+11 7.802427600000000000e+12
9.175260000000000360e-02 1.756544800000000000e+13 1.865622700000000000e+11 1.352208000000000000e+12
1.101031299999999935e-01 2.160072200000000000e+13 1.209837200000000000e+11 4.152904400000000000e+11
1.284536500000000026e-01 2.313526800000000000e+13 1.017726600000000000e+11 1.736437400000000000e+11
1.468041599999999891e-01 2.200601700000000000e+13 8.760629000000000000e+10 1.861921300000000000e+11
1.651546899999999929e-01 1.945359200000000000e+13 7.553892800000000000e+10 1.513635300000000000e+11
1.835052000000000072e-01 1.640179600000000000e+13 6.472014600000000000e+10 1.148728400000000000e+11
2.018557300000000110e-01 1.312449200000000000e+13 5.617970300000000000e+10 1.092649200000000000e+11
2.202062599999999870e-01 1.016742200000000000e+13 4.971440200000000000e+10 8.591251600000000000e+10
2.385567700000000013e-01 7.558687000000000000e+12 4.220009000000000000e+10 6.367519000000000000e+10
2.569073000000000051e-01 5.714764300000000000e+12 3.601090200000000000e+10 5.539836800000000000e+10
2.752578199999999864e-01 4.250572900000000000e+12 3.013917200000000000e+10 4.260393900000000000e+10
2.936083199999999782e-01 3.215487400000000000e+12 2.458175500000000000e+10 3.020487800000000000e+10
3.119588500000000098e-01 2.575757300000000000e+12 2.053921000000000000e+10 2.604363000000000000e+10
3.303093799999999858e-01 2.104535400000000000e+12 1.766180500000000000e+10 2.250765200000000000e+10
3.486599000000000226e-01 1.750244900000000000e+12 1.543592900000000000e+10 1.899356200000000000e+10
3.670104000000000144e-01 1.521068000000000000e+12 1.402052700000000000e+10 1.771966200000000000e+10
3.853609299999999904e-01 1.305556700000000000e+12 1.255214400000000000e+10 1.576343900000000000e+10
4.037114600000000220e-01 1.164087000000000000e+12 1.146487000000000000e+10 1.332081700000000000e+10
4.220619800000000033e-01 1.138419700000000000e+12 1.110505200000000000e+10 1.288269000000000000e+10
4.404125099999999793e-01 1.097095200000000000e+12 1.054125200000000000e+10 1.275522800000000000e+10
4.587630100000000266e-01 1.090566700000000000e+12 1.029064700000000000e+10 1.249170100000000000e+10
4.771135400000000026e-01 1.067865600000000000e+12 9.954179100000000000e+09 1.178959700000000000e+10
4.954640599999999839e-01 1.074022600000000000e+12 9.753320800000000000e+09 1.192968600000000000e+10
5.138145899999999600e-01 1.087307300000000000e+12 9.605418800000000000e+09 1.156325200000000000e+10
5.321650900000000073e-01 1.069539200000000000e+12 9.410944000000000000e+09 1.137809800000000000e+10
5.505156500000000230e-01 1.018316500000000000e+12 8.919518600000000000e+09 1.098377700000000000e+10
5.688661799999999991e-01 1.056931900000000000e+12 8.975348100000000000e+09 1.108871300000000000e+10
5.872166399999999564e-01 1.050093800000000000e+12 8.767400400000000000e+09 1.038735500000000000e+10
6.055671700000000435e-01 1.035979800000000000e+12 8.535580100000000000e+09 1.079335300000000000e+10
6.239177000000000195e-01 1.036036600000000000e+12 8.394915600000000000e+09 1.007152600000000000e+10
6.422682199999999453e-01 1.015760400000000000e+12 8.213908700000000000e+09 9.540809200000000000e+09
6.606187500000000323e-01 9.981607400000000000e+11 7.979327200000000000e+09 9.373017400000000000e+09
6.789692800000000084e-01 1.002227200000000000e+12 7.898449200000000000e+09 9.562452600000000000e+09
6.973198099999999844e-01 9.965466100000000000e+11 7.753193900000000000e+09 9.143564400000000000e+09
7.156703399999999604e-01 1.001603400000000000e+12 7.656490600000000000e+09 8.657528400000000000e+09
7.340208000000000288e-01 9.729853600000000000e+11 7.445734700000000000e+09 8.903268800000000000e+09
7.523713300000000048e-01 9.845956000000000000e+11 7.398270800000000000e+09 9.160765800000000000e+09
7.707218599999999809e-01 9.915865300000000000e+11 7.316652200000000000e+09 8.782022100000000000e+09
7.890723800000000177e-01 9.884530700000000000e+11 7.223860400000000000e+09 8.752716800000000000e+09
8.074229099999999937e-01 9.912062900000000000e+11 7.136767000000000000e+09 8.670843200000000000e+09
8.257734399999999697e-01 1.000582300000000000e+12 7.083884600000000000e+09 8.343449900000000000e+09
8.441239699999999457e-01 9.932530800000000000e+11 6.968631800000000000e+09 8.272002300000000000e+09
8.624745000000000328e-01 9.938049800000000000e+11 6.904582700000000000e+09 8.182639800000000000e+09
8.808250199999999586e-01 9.947298200000000000e+11 6.824268900000000000e+09 8.075666500000000000e+09
8.991754899999999662e-01 9.812790900000000000e+11 6.692811200000000000e+09 7.699229700000000000e+09
9.175260200000000532e-01 9.732781800000000000e+11 6.598817900000000000e+09 7.927164900000000000e+09
9.358765399999999790e-01 9.749252200000000000e+11 6.550035000000000000e+09 7.595220600000000000e+09
9.542270699999999550e-01 9.652809000000000000e+11 6.434055800000000000e+09 7.324708700000000000e+09
9.725776000000000421e-01 9.659412000000000000e+11 6.368330100000000000e+09 7.356755300000000000e+09
9.909281300000000181e-01 9.628732000000000000e+11 6.308735900000000000e+09 7.729975100000000000e+09
1.009278700000000084e+00 9.614691100000000000e+11 6.251876500000000000e+09 7.688043700000000000e+09
1.027629200000000020e+00 9.528195700000000000e+11 6.134355400000000000e+09 7.067010900000000000e+09
1.045979699999999957e+00 9.465305100000000000e+11 6.071428700000000000e+09 6.987483300000000000e+09
1.064330199999999893e+00 9.385871100000000000e+11 5.992676700000000000e+09 7.151921400000000000e+09
1.082680700000000051e+00 9.239765100000000000e+11 5.889023400000000000e+09 7.092619200000000000e+09
1.101031300000000046e+00 9.182729900000000000e+11 5.889610600000000000e+09 7.018250800000000000e+09
1.119381799999999982e+00 9.159031200000000000e+11 5.888559000000000000e+09 7.019495800000000000e+09
1.137732399999999977e+00 9.075195900000000000e+11 5.858199200000000000e+09 6.832925100000000000e+09
1.156082800000000077e+00 9.169521300000000000e+11 5.910729800000000000e+09 6.819858200000000000e+09
1.174433300000000013e+00 9.093169600000000000e+11 5.859173900000000000e+09 6.874638600000000000e+09
1.192783900000000008e+00 9.006064300000000000e+11 5.827182100000000000e+09 6.717819000000000000e+09
1.211134300000000108e+00 8.784698700000000000e+11 5.749186100000000000e+09 6.772085900000000000e+09
1.229484900000000103e+00 8.706115400000000000e+11 5.727595800000000000e+09 6.765659600000000000e+09
1.247835400000000039e+00 8.559567200000000000e+11 5.639777000000000000e+09 6.909452100000000000e+09
1.266186000000000034e+00 8.603697400000000000e+11 5.662013300000000000e+09 6.909680000000000000e+09
1.284536399999999912e+00 8.509187900000000000e+11 5.610047200000000000e+09 6.474840500000000000e+09
1.302886900000000070e+00 8.414950900000000000e+11 5.553192900000000000e+09 6.512603300000000000e+09
1.321237500000000065e+00 8.354456900000000000e+11 5.558714600000000000e+09 6.524145400000000000e+09
1.339588000000000001e+00 8.338402200000000000e+11 5.545954700000000000e+09 6.388911600000000000e+09
1.357938599999999996e+00 8.269043600000000000e+11 5.503357000000000000e+09 6.266397800000000000e+09
1.376289000000000096e+00 8.181621100000000000e+11 5.463007800000000000e+09 6.282088500000000000e+09
1.394639600000000090e+00 8.119868200000000000e+11 5.421811000000000000e+09 6.361002900000000000e+09
1.412990100000000027e+00 7.977568300000000000e+11 5.354733900000000000e+09 6.328341600000000000e+09
1.431340700000000021e+00 7.885149100000000000e+11 5.316147400000000000e+09 6.285421000000000000e+09
1.449691099999999899e+00 7.775738900000000000e+11 5.235618500000000000e+09 6.466797500000000000e+09
1.468041600000000058e+00 7.817010200000000000e+11 5.263943500000000000e+09 6.102613600000000000e+09
1.486392200000000052e+00 7.677520900000000000e+11 5.192879800000000000e+09 6.236192200000000000e+09
1.504742699999999989e+00 7.578815100000000000e+11 5.117668900000000000e+09 6.153741000000000000e+09
1.523093199999999925e+00 7.565308800000000000e+11 5.009067100000000000e+09 6.166011700000000000e+09
1.541443700000000083e+00 7.590608800000000000e+11 4.930970400000000000e+09 5.944370000000000000e+09
1.559794300000000078e+00 7.366112700000000000e+11 4.779497400000000000e+09 5.592112300000000000e+09
1.578144800000000014e+00 7.302221200000000000e+11 4.715663400000000000e+09 5.465308200000000000e+09
1.596495400000000009e+00 7.261655000000000000e+11 4.642084500000000000e+09 5.636744100000000000e+09
1.614845800000000109e+00 7.259030000000000000e+11 4.599001500000000000e+09 5.518374300000000000e+09
1.633196300000000045e+00 7.211634300000000000e+11 4.534961600000000000e+09 5.377325300000000000e+09
1.651546900000000040e+00 7.116287900000000000e+11 4.456154800000000000e+09 5.301079200000000000e+09
1.669897299999999918e+00 7.042909900000000000e+11 4.407642600000000000e+09 4.991779600000000000e+09
1.688247899999999913e+00 7.028121900000000000e+11 4.373227900000000000e+09 5.045830400000000000e+09
1.706598400000000071e+00 6.992559200000000000e+11 4.313938800000000000e+09 5.116925700000000000e+09
1.724949000000000066e+00 6.912458900000000000e+11 4.264300600000000000e+09 5.216644100000000000e+09
1.743299500000000002e+00 6.817796200000000000e+11 4.195564400000000000e+09 4.975297300000000000e+09
1.761649999999999938e+00 6.870499800000000000e+11 4.186307100000000000e+09 4.917379600000000000e+09
1.780000500000000097e+00 6.816473900000000000e+11 4.137170600000000000e+09 4.847829000000000000e+09
1.798351000000000033e+00 6.782056200000000000e+11 4.100477500000000000e+09 4.756998700000000000e+09
1.816701600000000028e+00 6.766466900000000000e+11 4.070958200000000000e+09 4.717877300000000000e+09
1.835051999999999905e+00 6.795715600000000000e+11 4.060028600000000000e+09 4.711633000000000000e+09
1.853402599999999900e+00 6.666501200000000000e+11 3.983965200000000000e+09 4.705778300000000000e+09
1.871753100000000059e+00 6.536554300000000000e+11 3.921697300000000000e+09 4.616823100000000000e+09
1.890103700000000053e+00 6.476400900000000000e+11 3.883692700000000000e+09 4.636986200000000000e+09
1.908454099999999931e+00 6.450087600000000000e+11 3.846487500000000000e+09 4.555179500000000000e+09
1.926804699999999926e+00 6.470627600000000000e+11 3.835663300000000000e+09 4.536965100000000000e+09
1.945155200000000084e+00 6.388540800000000000e+11 3.791781200000000000e+09 4.498317700000000000e+09
1.963505700000000020e+00 6.348915000000000000e+11 3.747984200000000000e+09 4.522950900000000000e+09
1.981856300000000015e+00 6.383243700000000000e+11 3.744837600000000000e+09 4.442685800000000000e+09
2.000206700000000115e+00 6.388788700000000000e+11 3.721182200000000000e+09 4.455668400000000000e+09
2.018557299999999888e+00 6.441624500000000000e+11 3.713662400000000000e+09 4.352182400000000000e+09
2.036907799999999824e+00 6.376576100000000000e+11 3.675484700000000000e+09 4.288126200000000000e+09
2.055258400000000041e+00 6.399238700000000000e+11 3.669981800000000000e+09 4.231346600000000000e+09
2.073608800000000141e+00 6.323558400000000000e+11 3.620288700000000000e+09 4.230777500000000000e+09
2.091959399999999913e+00 6.298099800000000000e+11 3.599510700000000000e+09 4.208665900000000000e+09
2.110309899999999850e+00 6.295783800000000000e+11 3.579815200000000000e+09 4.227160900000000000e+09
2.128660399999999786e+00 6.294523000000000000e+11 3.559669900000000000e+09 4.229192100000000000e+09
2.147010900000000166e+00 6.396540800000000000e+11 3.574986800000000000e+09 4.170719300000000000e+09
2.165361400000000103e+00 6.378211100000000000e+11 3.544203600000000000e+09 4.185564300000000000e+09
2.183711999999999875e+00 6.321763400000000000e+11 3.513292900000000000e+09 4.125023100000000000e+09
2.202062600000000092e+00 6.347146900000000000e+11 3.512127000000000000e+09 4.116192800000000000e+09
2.220412899999999912e+00 6.372380300000000000e+11 3.496609000000000000e+09 4.168191300000000000e+09
2.238763500000000128e+00 6.322025500000000000e+11 3.464188500000000000e+09 4.146195400000000000e+09
2.257114099999999901e+00 6.316144600000000000e+11 3.442860300000000000e+09 4.089665800000000000e+09
2.275464700000000118e+00 6.316470100000000000e+11 3.427178800000000000e+09 4.007555000000000000e+09
2.293814999999999937e+00 6.247511700000000000e+11 3.400274300000000000e+09 3.983419300000000000e+09
2.312165600000000154e+00 6.194319000000000000e+11 3.363133600000000000e+09 4.021824500000000000e+09
2.330516199999999927e+00 6.246907200000000000e+11 3.358169200000000000e+09 4.043517000000000000e+09
2.348866600000000027e+00 6.209964800000000000e+11 3.339102200000000000e+09 3.931528000000000000e+09
2.367217199999999799e+00 6.173642300000000000e+11 3.315647700000000000e+09 3.966317300000000000e+09
2.385567700000000180e+00 6.180985900000000000e+11 3.302861000000000000e+09 3.913072100000000000e+09
2.403918299999999952e+00 6.167751400000000000e+11 3.277553700000000000e+09 3.854577200000000000e+09
2.422268700000000052e+00 6.154607000000000000e+11 3.267607700000000000e+09 3.857608000000000000e+09
2.440619299999999825e+00 6.084455300000000000e+11 3.232488900000000000e+09 3.859085100000000000e+09
2.458969900000000042e+00 6.080920900000000000e+11 3.218882500000000000e+09 3.736811000000000000e+09
2.477320199999999861e+00 5.993137800000000000e+11 3.179923100000000000e+09 3.848650100000000000e+09
2.495670800000000078e+00 6.070589900000000000e+11 3.194208300000000000e+09 3.827417700000000000e+09
2.514021399999999851e+00 6.046636800000000000e+11 3.166363000000000000e+09 3.742870500000000000e+09
2.532372000000000067e+00 6.035502600000000000e+11 3.153500100000000000e+09 3.703406200000000000e+09
2.550722299999999887e+00 6.024702100000000000e+11 3.138588900000000000e+09 3.741787900000000000e+09
2.569072900000000104e+00 5.939712200000000000e+11 3.101870900000000000e+09 3.666103100000000000e+09
2.587423499999999876e+00 5.924457500000000000e+11 3.085545600000000000e+09 3.640355200000000000e+09
2.605773800000000140e+00 5.928000500000000000e+11 3.075296900000000000e+09 3.597411800000000000e+09
2.624124399999999913e+00 5.900434600000000000e+11 3.055450400000000000e+09 3.588376000000000000e+09
2.642475000000000129e+00 5.904141800000000000e+11 3.047555200000000000e+09 3.510401700000000000e+09
2.660825599999999902e+00 5.922863500000000000e+11 3.042200500000000000e+09 3.502422100000000000e+09
2.679175900000000166e+00 5.900560900000000000e+11 3.019301500000000000e+09 3.547287500000000000e+09
2.697526499999999938e+00 5.857927600000000000e+11 2.999049400000000000e+09 3.517373200000000000e+09
2.715877100000000155e+00 5.863091100000000000e+11 2.989275000000000000e+09 3.509090900000000000e+09
2.734227699999999928e+00 5.879571100000000000e+11 2.984001100000000000e+09 3.504636000000000000e+09
2.752578000000000191e+00 5.851781000000000000e+11 2.962451700000000000e+09 3.499492400000000000e+09
2.770928599999999964e+00 5.822566900000000000e+11 2.943319300000000000e+09 3.509114000000000000e+09
2.789279200000000181e+00 5.854589200000000000e+11 2.945095500000000000e+09 3.463332100000000000e+09
2.807629599999999837e+00 5.854503100000000000e+11 2.934846300000000000e+09 3.404409800000000000e+09
2.825980200000000053e+00 5.804513000000000000e+11 2.907234000000000000e+09 3.355868000000000000e+09
2.844330799999999826e+00 5.827786000000000000e+11 2.908030100000000000e+09 3.438269000000000000e+09
2.862681300000000206e+00 5.793184100000000000e+11 2.882866100000000000e+09 3.381115200000000000e+09
2.881031699999999862e+00 5.856183200000000000e+11 2.891338900000000000e+09 3.380677900000000000e+09
2.899382300000000079e+00 5.820969700000000000e+11 2.870371600000000000e+09 3.335085000000000000e+09
2.917732899999999852e+00 5.770780400000000000e+11 2.849748800000000000e+09 3.325263600000000000e+09
2.936083200000000115e+00 5.717134600000000000e+11 2.822067900000000000e+09 3.297078900000000000e+09
2.954433799999999888e+00 5.744675400000000000e+11 2.824561900000000000e+09 3.331631100000000000e+09
2.972784400000000105e+00 5.789662100000000000e+11 2.818084500000000000e+09 3.280721600000000000e+09
2.991134999999999877e+00 5.795733500000000000e+11 2.815799400000000000e+09 3.292823500000000000e+09
3.009485300000000141e+00 5.782240900000000000e+11 2.807336900000000000e+09 3.257506400000000000e+09
3.027835899999999913e+00 5.697058700000000000e+11 2.769197800000000000e+09 3.254331000000000000e+09
3.046186500000000130e+00 5.744737900000000000e+11 2.777375400000000000e+09 3.316122000000000000e+09
3.064537099999999903e+00 5.743692700000000000e+11 2.764783900000000000e+09 3.249466600000000000e+09
3.082887400000000167e+00 5.780798300000000000e+11 2.766057700000000000e+09 3.381741900000000000e+09
3.101237999999999939e+00 5.772748100000000000e+11 2.754712500000000000e+09 3.330680700000000000e+09
3.119588600000000156e+00 5.724006500000000000e+11 2.733094300000000000e+09 3.271618500000000000e+09
3.137938899999999975e+00 5.714486300000000000e+11 2.723941500000000000e+09 3.272065700000000000e+09
3.156289500000000192e+00 5.738810900000000000e+11 2.721216200000000000e+09 3.217368700000000000e+09
3.174640099999999965e+00 5.693853400000000000e+11 2.698190800000000000e+09 3.234932500000000000e+09
3.192990700000000182e+00 5.715645000000000000e+11 2.698287100000000000e+09 3.184847400000000000e+09
3.211341099999999837e+00 5.715119000000000000e+11 2.690460600000000000e+09 3.133694200000000000e+09
3.229691600000000218e+00 5.700711200000000000e+11 2.679742900000000000e+09 3.157413000000000000e+09
3.248042199999999990e+00 5.639313800000000000e+11 2.654107600000000000e+09 3.193032100000000000e+09
3.266392600000000090e+00 5.695827100000000000e+11 2.659857800000000000e+09 3.111058800000000000e+09
3.284743199999999863e+00 5.665556400000000000e+11 2.645271200000000000e+09 3.135293900000000000e+09
3.303093800000000080e+00 5.596380600000000000e+11 2.617136200000000000e+09 3.229073500000000000e+09
3.321444399999999852e+00 5.591416300000000000e+11 2.608714300000000000e+09 3.143853900000000000e+09
3.339794700000000116e+00 5.609788900000000000e+11 2.607723100000000000e+09 3.067333300000000000e+09
3.358145299999999889e+00 5.610384600000000000e+11 2.599841200000000000e+09 3.082810700000000000e+09
3.376495900000000105e+00 5.620206500000000000e+11 2.593035400000000000e+09 3.054726800000000000e+09
3.394846499999999878e+00 5.670213100000000000e+11 2.602046600000000000e+09 3.056905800000000000e+09
3.413196800000000142e+00 5.628475500000000000e+11 2.585418800000000000e+09 3.017487800000000000e+09
3.431547399999999914e+00 5.595805400000000000e+11 2.569455300000000000e+09 2.978523700000000000e+09
3.449898000000000131e+00 5.634868300000000000e+11 2.570814700000000000e+09 2.986550600000000000e+09
3.468248299999999951e+00 5.615350300000000000e+11 2.558507400000000000e+09 2.965925200000000000e+09
3.486598900000000167e+00 5.616242300000000000e+11 2.552491700000000000e+09 3.007750100000000000e+09
3.504949499999999940e+00 5.609135700000000000e+11 2.543340900000000000e+09 2.942835800000000000e+09
3.523300100000000157e+00 5.610133900000000000e+11 2.533872200000000000e+09 2.923731900000000000e+09
3.541650399999999976e+00 5.651527400000000000e+11 2.542426900000000000e+09 2.944817600000000000e+09
3.560001000000000193e+00 5.626159000000000000e+11 2.525703500000000000e+09 2.908886700000000000e+09
3.578351599999999966e+00 5.608880400000000000e+11 2.516839800000000000e+09 2.903113200000000000e+09
3.596702000000000066e+00 5.573320900000000000e+11 2.501042300000000000e+09 2.955480800000000000e+09
3.615052500000000002e+00 5.568694400000000000e+11 2.489805900000000000e+09 2.938301200000000000e+09
3.633403100000000219e+00 5.552952400000000000e+11 2.482950500000000000e+09 2.905705600000000000e+09
3.651753699999999991e+00 5.509225600000000000e+11 2.462758500000000000e+09 2.917646400000000000e+09
3.670104100000000091e+00 5.548756200000000000e+11 2.469797400000000000e+09 2.889826200000000000e+09
3.688454699999999864e+00 5.519540300000000000e+11 2.473748100000000000e+09 2.952098700000000000e+09
3.706805199999999800e+00 5.532443000000000000e+11 2.487061300000000000e+09 2.955489300000000000e+09
3.725155800000000017e+00 5.543684300000000000e+11 2.498050700000000000e+09 2.979455600000000000e+09
3.743506200000000117e+00 5.493525500000000000e+11 2.494837900000000000e+09 2.929527300000000000e+09
3.761856799999999890e+00 5.499792100000000000e+11 2.497717900000000000e+09 2.943940000000000000e+09
3.780207400000000106e+00 5.531815800000000000e+11 2.511183800000000000e+09 2.952271900000000000e+09
3.798557699999999926e+00 5.511740800000000000e+11 2.500046800000000000e+09 2.884240700000000000e+09
3.816908300000000143e+00 5.526132700000000000e+11 2.510425900000000000e+09 2.937174100000000000e+09
3.835258899999999915e+00 5.515849500000000000e+11 2.508614500000000000e+09 2.936279200000000000e+09
3.853609500000000132e+00 5.486575700000000000e+11 2.500933900000000000e+09 2.987690000000000000e+09
3.871959799999999952e+00 5.450525300000000000e+11 2.491328300000000000e+09 2.960849100000000000e+09
3.890310400000000168e+00 5.481208500000000000e+11 2.500387200000000000e+09 2.906077800000000000e+09
3.908660999999999941e+00 5.464500600000000000e+11 2.498257000000000000e+09 2.916666400000000000e+09
3.927011300000000205e+00 5.483929300000000000e+11 2.506555700000000000e+09 2.914487500000000000e+09
3.945361899999999977e+00 5.464739900000000000e+11 2.503921100000000000e+09 2.925113600000000000e+09
3.963712500000000194e+00 5.422751600000000000e+11 2.493626900000000000e+09 2.957677600000000000e+09
3.982063099999999967e+00 5.380911000000000000e+11 2.480394100000000000e+09 2.962894400000000000e+09
4.000413400000000230e+00 5.412878700000000000e+11 2.490920200000000000e+09 2.902205500000000000e+09
4.018764000000000003e+00 5.410285100000000000e+11 2.485808300000000000e+09 2.864612500000000000e+09
4.037114599999999776e+00 5.409688400000000000e+11 2.486084300000000000e+09 2.913917400000000000e+09
4.055465200000000436e+00 5.377380700000000000e+11 2.476061300000000000e+09 2.906380100000000000e+09
4.073815599999999648e+00 5.368893900000000000e+11 2.472051200000000000e+09 2.861965900000000000e+09
4.092166100000000029e+00 5.405395100000000000e+11 2.471642100000000000e+09 2.954538900000000000e+09
4.110516699999999801e+00 5.363035800000000000e+11 2.434120700000000000e+09 2.903277000000000000e+09
4.128867099999999901e+00 5.370744100000000000e+11 2.418443100000000000e+09 2.839524500000000000e+09
4.147217699999999674e+00 5.389731500000000000e+11 2.404664400000000000e+09 2.801240400000000000e+09
4.165568300000000335e+00 5.382066100000000000e+11 2.387255600000000000e+09 2.792102300000000000e+09
4.183918799999999827e+00 5.348597400000000000e+11 2.371002600000000000e+09 2.737755100000000000e+09
4.202269199999999927e+00 5.315463800000000000e+11 2.351201400000000000e+09 2.754216500000000000e+09
4.220619799999999699e+00 5.330982900000000000e+11 2.343011800000000000e+09 2.795509500000000000e+09
4.238970400000000360e+00 5.320557000000000000e+11 2.331076600000000000e+09 2.772192500000000000e+09
4.257320700000000180e+00 5.297292200000000000e+11 2.322296100000000000e+09 2.743338200000000000e+09
4.275671299999999952e+00 5.273114000000000000e+11 2.301472100000000000e+09 2.717424700000000000e+09
4.294021899999999725e+00 5.303975900000000000e+11 2.302596000000000000e+09 2.708552900000000000e+09
4.312372200000000433e+00 5.257396100000000000e+11 2.285333600000000000e+09 2.731892900000000000e+09
4.330722800000000206e+00 5.263938900000000000e+11 2.278914700000000000e+09 2.722440300000000000e+09
4.349073399999999978e+00 5.297564400000000000e+11 2.280594400000000000e+09 2.690677100000000000e+09
4.367423999999999751e+00 5.311936700000000000e+11 2.270790600000000000e+09 2.727966300000000000e+09
4.385774600000000412e+00 5.311821800000000000e+11 2.267315200000000000e+09 2.674884700000000000e+09
4.404125200000000184e+00 5.309355400000000000e+11 2.262377300000000000e+09 2.680849900000000000e+09
4.422475300000000331e+00 5.269465200000000000e+11 2.243076600000000000e+09 2.612743100000000000e+09
4.440825900000000104e+00 5.264575700000000000e+11 2.237550700000000000e+09 2.655502600000000000e+09
4.459176399999999596e+00 5.271995900000000000e+11 2.234033800000000000e+09 2.637624200000000000e+09
4.477527000000000257e+00 5.273616800000000000e+11 2.227036500000000000e+09 2.658659900000000000e+09
4.495877600000000029e+00 5.226568500000000000e+11 2.208859500000000000e+09 2.649275600000000000e+09
4.514228199999999802e+00 5.222037700000000000e+11 2.201022100000000000e+09 2.621700800000000000e+09
4.532578799999999575e+00 5.226465900000000000e+11 2.197138800000000000e+09 2.624840400000000000e+09
4.550929400000000236e+00 5.225465400000000000e+11 2.189119300000000000e+09 2.583482500000000000e+09
4.569279500000000382e+00 5.250582200000000000e+11 2.193636300000000000e+09 2.617606800000000000e+09
4.587630100000000155e+00 5.222928800000000000e+11 2.180500500000000000e+09 2.603935900000000000e+09
4.605980699999999928e+00 5.219182000000000000e+11 2.174359500000000000e+09 2.591173100000000000e+09
4.624331299999999700e+00 5.176834500000000000e+11 2.155794400000000000e+09 2.564243900000000000e+09
4.642681900000000361e+00 5.218493700000000000e+11 2.161058400000000000e+09 2.562537400000000000e+09
4.661032399999999853e+00 5.226240700000000000e+11 2.158275200000000000e+09 2.556791300000000000e+09
4.679382999999999626e+00 5.184781200000000000e+11 2.145237900000000000e+09 2.531651300000000000e+09
4.697733099999999773e+00 5.167616100000000000e+11 2.136142000000000000e+09 2.547008900000000000e+09
4.716083700000000434e+00 5.147303200000000000e+11 2.123307800000000000e+09 2.530975300000000000e+09
4.734434300000000206e+00 5.156716700000000000e+11 2.121432900000000000e+09 2.517390700000000000e+09
4.752784899999999979e+00 5.175988500000000000e+11 2.123623900000000000e+09 2.483172900000000000e+09
4.771135499999999752e+00 5.147885700000000000e+11 2.111629000000000000e+09 2.468605200000000000e+09
4.789486100000000413e+00 5.141641500000000000e+11 2.103789900000000000e+09 2.496557900000000000e+09
4.807836700000000185e+00 5.156081700000000000e+11 2.103911500000000000e+09 2.505315900000000000e+09
4.826186800000000332e+00 5.125349300000000000e+11 2.089055700000000000e+09 2.467171700000000000e+09
4.844537299999999824e+00 5.087347600000000000e+11 2.076373200000000000e+09 2.479145700000000000e+09
4.862887899999999597e+00 5.127366300000000000e+11 2.084633900000000000e+09 2.492222800000000000e+09
4.881238500000000258e+00 5.126051300000000000e+11 2.074213900000000000e+09 2.475341800000000000e+09
4.899589100000000030e+00 5.147273600000000000e+11 2.076689400000000000e+09 2.467568400000000000e+09
4.917939699999999803e+00 5.149534900000000000e+11 2.073181400000000000e+09 2.472735700000000000e+09
4.936290299999999576e+00 5.143837600000000000e+11 2.063951700000000000e+09 2.464831600000000000e+09
4.954640399999999723e+00 5.133934600000000000e+11 2.058829400000000000e+09 2.457216800000000000e+09
4.972991000000000383e+00 5.103523100000000000e+11 2.045637500000000000e+09 2.412810800000000000e+09
4.991341600000000156e+00 5.127739200000000000e+11 2.051610100000000000e+09 2.414340800000000000e+09
5.009692199999999929e+00 5.118394000000000000e+11 2.043826000000000000e+09 2.364822400000000000e+09
5.028042799999999701e+00 5.103327500000000000e+11 2.034853800000000000e+09 2.394190800000000000e+09
5.046393300000000082e+00 5.105239700000000000e+11 2.030357900000000000e+09 2.352398600000000000e+09
5.064743899999999854e+00 5.083879300000000000e+11 2.022851900000000000e+09 2.355869700000000000e+09
5.083094000000000001e+00 5.090477700000000000e+11 2.020304000000000000e+09 2.359631100000000000e+09
5.101444599999999774e+00 5.051980400000000000e+11 2.004161600000000000e+09 2.355491500000000000e+09
5.119795200000000435e+00 5.073372800000000000e+11 2.007363700000000000e+09 2.318109000000000000e+09
5.138145800000000207e+00 5.085551200000000000e+11 2.005730200000000000e+09 2.374598400000000000e+09
5.156496399999999980e+00 5.039725400000000000e+11 1.990435900000000000e+09 2.351225000000000000e+09
5.174846999999999753e+00 5.017577800000000000e+11 1.982073600000000000e+09 2.369788300000000000e+09
5.193197600000000413e+00 5.046396700000000000e+11 1.984796000000000000e+09 2.360558200000000000e+09
5.211547600000000280e+00 5.049368600000000000e+11 1.980615900000000000e+09 2.362614700000000000e+09
5.229898200000000053e+00 5.055709000000000000e+11 1.978017700000000000e+09 2.388339900000000000e+09
5.248248799999999825e+00 5.042023600000000000e+11 1.971270800000000000e+09 2.353866100000000000e+09
5.266599399999999598e+00 5.060054800000000000e+11 1.973472800000000000e+09 2.318702500000000000e+09
5.284950000000000259e+00 5.042891500000000000e+11 2.019402700000000000e+09 2.341812800000000000e+09
5.303300600000000031e+00 4.976807000000000000e+11 2.088814600000000000e+09 2.451151200000000000e+09
5.321651199999999804e+00 4.972309900000000000e+11 2.140120100000000000e+09 2.475385800000000000e+09
5.340001799999999577e+00 4.956978200000000000e+11 2.180016400000000000e+09 2.582168800000000000e+09
5.358351899999999723e+00 4.976565900000000000e+11 2.231439800000000000e+09 2.697137200000000000e+09
5.376702500000000384e+00 4.955071000000000000e+11 2.269145300000000000e+09 2.722471100000000000e+09
5.395053100000000157e+00 4.958843300000000000e+11 2.313389700000000000e+09 2.764446300000000000e+09
5.413403599999999649e+00 4.973118100000000000e+11 2.362363000000000000e+09 2.832315400000000000e+09
5.431754200000000310e+00 4.978128000000000000e+11 2.406889100000000000e+09 2.843006500000000000e+09
5.450104800000000083e+00 4.914630700000000000e+11 2.411787900000000000e+09 2.865265800000000000e+09
5.468455399999999855e+00 4.936608200000000000e+11 2.452189800000000000e+09 2.845406500000000000e+09
5.486805500000000002e+00 4.889519400000000000e+11 2.481345200000000000e+09 2.922434800000000000e+09
5.505156099999999775e+00 4.911419500000000000e+11 2.535845200000000000e+09 3.034934500000000000e+09
5.523506700000000436e+00 4.934768100000000000e+11 2.593311200000000000e+09 3.068467500000000000e+09
5.541857300000000208e+00 4.894508300000000000e+11 2.635395200000000000e+09 3.095724900000000000e+09
5.560207899999999981e+00 4.850532200000000000e+11 2.673620200000000000e+09 3.200340100000000000e+09
5.578558499999999754e+00 4.840499200000000000e+11 2.736992200000000000e+09 3.257290900000000000e+09
5.596909100000000414e+00 4.887048000000000000e+11 2.816731300000000000e+09 3.327443000000000000e+09
5.615259100000000281e+00 4.886254800000000000e+11 2.881762500000000000e+09 3.438835200000000000e+09
5.633609700000000053e+00 4.883042700000000000e+11 2.961472300000000000e+09 3.557254100000000000e+09
5.651960299999999826e+00 4.927101300000000000e+11 3.067823300000000000e+09 3.626891600000000000e+09
5.670310899999999599e+00 4.897814300000000000e+11 3.139479200000000000e+09 3.738065200000000000e+09
5.688661500000000260e+00 4.813959400000000000e+11 3.194880600000000000e+09 3.713871800000000000e+09
5.707012100000000032e+00 4.783405200000000000e+11 3.319025400000000000e+09 3.902218000000000000e+09
5.725362699999999805e+00 4.768642800000000000e+11 3.470005500000000000e+09 4.091337000000000000e+09
5.743712799999999952e+00 4.723413200000000000e+11 3.644168000000000000e+09 4.349627300000000000e+09
5.762063399999999724e+00 4.813029500000000000e+11 3.964806000000000000e+09 4.731473400000000000e+09
5.780414000000000385e+00 4.764477500000000000e+11 4.303326200000000000e+09 5.251723400000000000e+09
5.798764499999999877e+00 4.772893700000000000e+11 4.947064200000000000e+09 5.927155100000000000e+09
