7.340207999999999455e-02 6.471309900000000000e+12 1.603985300000000000e+11 7.047629500000000000e+12
9.175260000000000360e-02 1.325075400000000000e+13 7.947011000000000000e+10 1.120210400000000000e+12
1.101031299999999935e-01 1.928802100000000000e+13 5.533059300000000000e+10 3.451033100000000000e+11
1.284536500000000026e-01 2.336217000000000000e+13 5.207836700000000000e+10 1.896247000000000000e+11
1.468041599999999891e-01 2.470117700000000000e+13 5.226788500000000000e+10 1.408098800000000000e+11
1.651546899999999929e-01 2.359692600000000000e+13 4.400963300000000000e+10 1.294391900000000000e+11
1.835052000000000072e-01 2.084380500000000000e+13 3.647264700000000000e+10 1.167390100000000000e+11
2.018557300000000110e-01 1.717250300000000000e+13 3.198135800000000000e+10 1.173487100000000000e+11
2.202062599999999870e-01 1.359090400000000000e+13 2.855445000000000000e+10 9.306033300000000000e+10
2.385567700000000013e-01 1.031560200000000000e+13 2.453004600000000000e+10 6.383720000000000000e+10
2.569073000000000051e-01 7.563716500000000000e+12 2.055739800000000000e+10 5.241977500000000000e+10
2.752578199999999864e-01 5.502517300000000000e+12 1.703750000000000000e+10 3.891995800000000000e+10
2.936083199999999782e-01 3.990897100000000000e+12 1.359672600000000000e+10 2.672959900000000000e+10
3.119588500000000098e-01 3.016465800000000000e+12 1.102655000000000000e+10 1.879149000000000000e+10
3.303093799999999858e-01 2.395926900000000000e+12 9.393700700000000000e+09 1.545260700000000000e+10
3.486599000000000226e-01 1.965259900000000000e+12 8.143565200000000000e+09 1.284355200000000000e+10
3.670104000000000144e-01 1.711652200000000000e+12 7.383618500000000000e+09 1.001148300000000000e+10
3.853609299999999904e-01 1.537662000000000000e+12 6.787620000000000000e+09 9.481361400000000000e+09
4.037114600000000220e-01 1.419996100000000000e+12 6.311691700000000000e+09 9.229085800000000000e+09
4.220619800000000033e-01 1.369355300000000000e+12 6.045145100000000000e+09 8.209106300000000000e+09
4.404125099999999793e-01 1.307242300000000000e+12 5.740187000000000000e+09 7.577467500000000000e+09
4.587630100000000266e-01 1.268175100000000000e+12 5.523920600000000000e+09 7.460812300000000000e+09
4.771135400000000026e-01 1.245718900000000000e+12 5.365151000000000000e+09 6.992360900000000000e+09
4.954640599999999839e-01 1.247676000000000000e+12 5.249953900000000000e+09 6.884143000000000000e+09
5.138145899999999600e-01 1.252026100000000000e+12 5.131523100000000000e+09 6.629775300000000000e+09
5.321650900000000073e-01 1.258287200000000000e+12 5.074226500000000000e+09 6.641095100000000000e+09
5.505156500000000230e-01 1.262261100000000000e+12 4.982678100000000000e+09 6.487731700000000000e+09
5.688661799999999991e-01 1.253621600000000000e+12 4.854485000000000000e+09 6.211887900000000000e+09
5.872166399999999564e-01 1.254463500000000000e+12 4.784331900000000000e+09 6.170751100000000000e+09
6.055671700000000435e-01 1.254901500000000000e+12 4.704258500000000000e+09 6.085452300000000000e+09
6.239177000000000195e-01 1.248934200000000000e+12 4.601684300000000000e+09 6.037486900000000000e+09
6.422682199999999453e-01 1.239753600000000000e+12 4.517440700000000000e+09 5.947118000000000000e+09
6.606187500000000323e-01 1.234443000000000000e+12 4.423000000000000000e+09 5.694384300000000000e+09
6.789692800000000084e-01 1.236481300000000000e+12 4.363853600000000000e+09 5.789023500000000000e+09
6.973198099999999844e-01 1.234333100000000000e+12 4.299852500000000000e+09 5.620335700000000000e+09
7.156703399999999604e-01 1.223901300000000000e+12 4.221661400000000000e+09 5.598046100000000000e+09
7.340208000000000288e-01 1.218577700000000000e+12 4.159374400000000000e+09 5.170869300000000000e+09
7.523713300000000048e-01 1.215215300000000000e+12 4.088697200000000000e+09 5.193329200000000000e+09
7.707218599999999809e-01 1.209508800000000000e+12 4.020825500000000000e+09 5.232029100000000000e+09
7.890723800000000177e-01 1.201691400000000000e+12 3.959739800000000000e+09 4.888844300000000000e+09
8.074229099999999937e-01 1.211887700000000000e+12 3.928479400000000000e+09 4.946938700000000000e+09
8.257734399999999697e-01 1.205336600000000000e+12 3.870335200000000000e+09 4.957552400000000000e+09
8.441239699999999457e-01 1.197318300000000000e+12 3.819157100000000000e+09 4.881987400000000000e+09
8.624745000000000328e-01 1.185489800000000000e+12 3.756939000000000000e+09 4.756819700000000000e+09
8.808250199999999586e-01 1.181317100000000000e+12 3.699988000000000000e+09 4.785552200000000000e+09
8.991754899999999662e-01 1.173154500000000000e+12 3.639977900000000000e+09 4.824941200000000000e+09
9.175260200000000532e-01 1.160362700000000000e+12 3.580367200000000000e+09 4.504813900000000000e+09
9.358765399999999790e-01 1.161518700000000000e+12 3.551508600000000000e+09 4.559410000000000000e+09
9.542270699999999550e-01 1.156810700000000000e+12 3.507391600000000000e+09 4.455342300000000000e+09
9.725776000000000421e-01 1.149568500000000000e+12 3.454620300000000000e+09 4.406177700000000000e+09
9.909281300000000181e-01 1.141847300000000000e+12 3.411767900000000000e+09 4.297751200000000000e+09
1.009278700000000084e+00 1.131413100000000000e+12 3.366722500000000000e+09 4.396007700000000000e+09
1.027629200000000020e+00 1.122454800000000000e+12 3.318714300000000000e+09 4.123875300000000000e+09
1.045979699999999957e+00 1.116541400000000000e+12 3.281265000000000000e+09 4.087832400000000000e+09
1.064330199999999893e+00 1.102290800000000000e+12 3.230537600000000000e+09 4.145079900000000000e+09
1.082680700000000051e+00 1.097348900000000000e+12 3.200975100000000000e+09 4.102521100000000000e+09
1.101031300000000046e+00 1.088225200000000000e+12 3.193446900000000000e+09 4.046926300000000000e+09
1.119381799999999982e+00 1.078950700000000000e+12 3.175430400000000000e+09 3.941245300000000000e+09
1.137732399999999977e+00 1.069447400000000000e+12 3.157175000000000000e+09 3.953994300000000000e+09
1.156082800000000077e+00 1.067949000000000000e+12 3.170239500000000000e+09 4.017530300000000000e+09
1.174433300000000013e+00 1.064259700000000000e+12 3.155540200000000000e+09 4.023179000000000000e+09
1.192783900000000008e+00 1.049513500000000000e+12 3.129101900000000000e+09 4.052221600000000000e+09
1.211134300000000108e+00 1.039749700000000000e+12 3.112837500000000000e+09 4.091970300000000000e+09
1.229484900000000103e+00 1.028443200000000000e+12 3.088524600000000000e+09 3.965216700000000000e+09
1.247835400000000039e+00 1.009602700000000000e+12 3.047311500000000000e+09 3.713769000000000000e+09
1.266186000000000034e+00 1.006698500000000000e+12 3.040863400000000000e+09 3.791771800000000000e+09
1.284536399999999912e+00 9.991455100000000000e+11 3.019102800000000000e+09 3.779851700000000000e+09
1.302886900000000070e+00 9.923903300000000000e+11 2.997688500000000000e+09 3.757530500000000000e+09
1.321237500000000065e+00 9.822762600000000000e+11 2.996710900000000000e+09 3.813424200000000000e+09
1.339588000000000001e+00 9.728591900000000000e+11 2.973161700000000000e+09 3.800252600000000000e+09
1.357938599999999996e+00 9.656204900000000000e+11 2.957057100000000000e+09 3.671469100000000000e+09
1.376289000000000096e+00 9.614943000000000000e+11 2.948284700000000000e+09 3.587890800000000000e+09
1.394639600000000090e+00 9.513520800000000000e+11 2.919485700000000000e+09 3.720625300000000000e+09
1.412990100000000027e+00 9.421215100000000000e+11 2.904542500000000000e+09 3.544222100000000000e+09
1.431340700000000021e+00 9.323673100000000000e+11 2.873041100000000000e+09 3.546406200000000000e+09
1.449691099999999899e+00 9.287145600000000000e+11 2.850561500000000000e+09 3.505416900000000000e+09
1.468041600000000058e+00 9.162199700000000000e+11 2.830844100000000000e+09 3.524815900000000000e+09
1.486392200000000052e+00 9.060806300000000000e+11 2.807645800000000000e+09 3.471021700000000000e+09
1.504742699999999989e+00 8.995263400000000000e+11 2.775350000000000000e+09 3.471679600000000000e+09
1.523093199999999925e+00 8.936518600000000000e+11 2.710775200000000000e+09 3.463515300000000000e+09
1.541443700000000083e+00 8.849120000000000000e+11 2.641758100000000000e+09 3.287775200000000000e+09
1.559794300000000078e+00 8.781212100000000000e+11 2.601691900000000000e+09 3.272056300000000000e+09
1.578144800000000014e+00 8.664119100000000000e+11 2.551421000000000000e+09 3.149634100000000000e+09
1.596495400000000009e+00 8.665669400000000000e+11 2.521023200000000000e+09 3.149615900000000000e+09
1.614845800000000109e+00 8.609031500000000000e+11 2.487313200000000000e+09 3.041977900000000000e+09
1.633196300000000045e+00 8.510457200000000000e+11 2.451553300000000000e+09 3.055191300000000000e+09
1.651546900000000040e+00 8.465432000000000000e+11 2.423245000000000000e+09 3.021958900000000000e+09
1.669897299999999918e+00 8.379752600000000000e+11 2.389804100000000000e+09 2.998813900000000000e+09
1.688247899999999913e+00 8.339817900000000000e+11 2.370590100000000000e+09 3.078769000000000000e+09
1.706598400000000071e+00 8.275009600000000000e+11 2.337400300000000000e+09 2.910237700000000000e+09
1.724949000000000066e+00 8.163134000000000000e+11 2.305838700000000000e+09 2.871048200000000000e+09
1.743299500000000002e+00 8.112239500000000000e+11 2.280376800000000000e+09 2.810557800000000000e+09
1.761649999999999938e+00 8.102385800000000000e+11 2.258373100000000000e+09 2.773258200000000000e+09
1.780000500000000097e+00 8.051246700000000000e+11 2.238817400000000000e+09 2.752368600000000000e+09
1.798351000000000033e+00 8.003942800000000000e+11 2.216077600000000000e+09 2.642354700000000000e+09
1.816701600000000028e+00 7.954600300000000000e+11 2.195089800000000000e+09 2.683412400000000000e+09
1.835051999999999905e+00 7.878693800000000000e+11 2.171684600000000000e+09 2.650037700000000000e+09
1.853402599999999900e+00 7.811619500000000000e+11 2.144707700000000000e+09 2.572500000000000000e+09
1.871753100000000059e+00 7.799792800000000000e+11 2.130909500000000000e+09 2.636831000000000000e+09
1.890103700000000053e+00 7.756749500000000000e+11 2.112512000000000000e+09 2.612074100000000000e+09
1.908454099999999931e+00 7.739300900000000000e+11 2.100131700000000000e+09 2.637275600000000000e+09
1.926804699999999926e+00 7.709692900000000000e+11 2.082543300000000000e+09 2.606339400000000000e+09
1.945155200000000084e+00 7.664717100000000000e+11 2.063543800000000000e+09 2.516692900000000000e+09
1.963505700000000020e+00 7.651030900000000000e+11 2.046698500000000000e+09 2.455024600000000000e+09
1.981856300000000015e+00 7.639493800000000000e+11 2.036141200000000000e+09 2.503173500000000000e+09
2.000206700000000115e+00 7.597893700000000000e+11 2.020514500000000000e+09 2.455914700000000000e+09
2.018557299999999888e+00 7.614267700000000000e+11 2.009861500000000000e+09 2.498757500000000000e+09
2.036907799999999824e+00 7.582364900000000000e+11 1.994185600000000000e+09 2.451274900000000000e+09
2.055258400000000041e+00 7.556975200000000000e+11 1.979090300000000000e+09 2.436214100000000000e+09
2.073608800000000141e+00 7.561495600000000000e+11 1.968217400000000000e+09 2.399540700000000000e+09
2.091959399999999913e+00 7.603579500000000000e+11 1.970271000000000000e+09 2.437140000000000000e+09
2.110309899999999850e+00 7.514301000000000000e+11 1.941066700000000000e+09 2.393155800000000000e+09
2.128660399999999786e+00 7.518049400000000000e+11 1.933655600000000000e+09 2.323674300000000000e+09
2.147010900000000166e+00 7.561088300000000000e+11 1.931601400000000000e+09 2.365086900000000000e+09
2.165361400000000103e+00 7.558253000000000000e+11 1.919262100000000000e+09 2.335390900000000000e+09
2.183711999999999875e+00 7.518344400000000000e+11 1.906036600000000000e+09 2.322952300000000000e+09
2.202062600000000092e+00 7.508788700000000000e+11 1.900025300000000000e+09 2.433034800000000000e+09
2.220412899999999912e+00 7.534447800000000000e+11 1.891023700000000000e+09 2.398372900000000000e+09
2.238763500000000128e+00 7.512707600000000000e+11 1.876404300000000000e+09 2.372836400000000000e+09
2.257114099999999901e+00 7.490591500000000000e+11 1.866270000000000000e+09 2.323606300000000000e+09
2.275464700000000118e+00 7.495632100000000000e+11 1.859555200000000000e+09 2.345387800000000000e+09
2.293814999999999937e+00 7.488271900000000000e+11 1.851843200000000000e+09 2.301442100000000000e+09
2.312165600000000154e+00 7.421296500000000000e+11 1.830530100000000000e+09 2.228280100000000000e+09
2.330516199999999927e+00 7.429253800000000000e+11 1.824646700000000000e+09 2.288910000000000000e+09
2.348866600000000027e+00 7.386644300000000000e+11 1.812463200000000000e+09 2.276529100000000000e+09
2.367217199999999799e+00 7.363789600000000000e+11 1.802419000000000000e+09 2.173414000000000000e+09
2.385567700000000180e+00 7.343697700000000000e+11 1.789761000000000000e+09 2.184053000000000000e+09
2.403918299999999952e+00 7.301719500000000000e+11 1.772734900000000000e+09 2.198455600000000000e+09
2.422268700000000052e+00 7.260270900000000000e+11 1.762287000000000000e+09 2.224394100000000000e+09
2.440619299999999825e+00 7.244435000000000000e+11 1.755497400000000000e+09 2.219148300000000000e+09
2.458969900000000042e+00 7.202289600000000000e+11 1.740431200000000000e+09 2.181041400000000000e+09
2.477320199999999861e+00 7.202220800000000000e+11 1.737082400000000000e+09 2.135644700000000000e+09
2.495670800000000078e+00 7.162609300000000000e+11 1.723961100000000000e+09 2.109098600000000000e+09
2.514021399999999851e+00 7.133578200000000000e+11 1.712423500000000000e+09 2.078679400000000000e+09
2.532372000000000067e+00 7.128776300000000000e+11 1.705333700000000000e+09 2.064365900000000000e+09
2.550722299999999887e+00 7.104098800000000000e+11 1.694067900000000000e+09 2.092524700000000000e+09
2.569072900000000104e+00 7.099445800000000000e+11 1.687229900000000000e+09 2.085179000000000000e+09
2.587423499999999876e+00 7.079754900000000000e+11 1.678393000000000000e+09 2.070044200000000000e+09
2.605773800000000140e+00 7.082137400000000000e+11 1.672800300000000000e+09 2.046064900000000000e+09
2.624124399999999913e+00 7.046558100000000000e+11 1.660524700000000000e+09 2.074409300000000000e+09
2.642475000000000129e+00 7.029189100000000000e+11 1.651523700000000000e+09 2.059513900000000000e+09
2.660825599999999902e+00 7.059217900000000000e+11 1.650957100000000000e+09 2.027754900000000000e+09
2.679175900000000166e+00 7.013535300000000000e+11 1.637056600000000000e+09 2.012484500000000000e+09
2.697526499999999938e+00 7.016750500000000000e+11 1.631386200000000000e+09 1.968995800000000000e+09
2.715877100000000155e+00 7.009203300000000000e+11 1.624930400000000000e+09 1.958886300000000000e+09
2.734227699999999928e+00 6.981741300000000000e+11 1.616729400000000000e+09 1.976991300000000000e+09
2.752578000000000191e+00 6.972163600000000000e+11 1.608300800000000000e+09 1.933919500000000000e+09
2.770928599999999964e+00 6.958879400000000000e+11 1.600038100000000000e+09 1.927206600000000000e+09
2.789279200000000181e+00 6.972856100000000000e+11 1.596976500000000000e+09 1.969937000000000000e+09
2.807629599999999837e+00 6.963300000000000000e+11 1.589081100000000000e+09 1.916420800000000000e+09
2.825980200000000053e+00 6.970503700000000000e+11 1.584728600000000000e+09 1.920310600000000000e+09
2.844330799999999826e+00 6.978141700000000000e+11 1.580413700000000000e+09 1.920220700000000000e+09
2.862681300000000206e+00 6.952331600000000000e+11 1.571476400000000000e+09 1.903357400000000000e+09
2.881031699999999862e+00 6.933120100000000000e+11 1.566589800000000000e+09 1.949545200000000000e+09
2.899382300000000079e+00 6.911756700000000000e+11 1.555629600000000000e+09 1.910148800000000000e+09
2.917732899999999852e+00 6.894554900000000000e+11 1.546768900000000000e+09 1.928724800000000000e+09
2.936083200000000115e+00 6.896569600000000000e+11 1.545115900000000000e+09 1.902310100000000000e+09
2.954433799999999888e+00 6.885283800000000000e+11 1.539635100000000000e+09 1.861864900000000000e+09
2.972784400000000105e+00 6.857852000000000000e+11 1.527624800000000000e+09 1.823533000000000000e+09
2.991134999999999877e+00 6.861570700000000000e+11 1.526067700000000000e+09 1.907788500000000000e+09
3.009485300000000141e+00 6.876461500000000000e+11 1.520794200000000000e+09 1.896229100000000000e+09
3.027835899999999913e+00 6.851311000000000000e+11 1.509890200000000000e+09 1.859230200000000000e+09
3.046186500000000130e+00 6.866546600000000000e+11 1.509778800000000000e+09 1.861171100000000000e+09
3.064537099999999903e+00 6.859042100000000000e+11 1.505683000000000000e+09 1.882848700000000000e+09
3.082887400000000167e+00 6.846414700000000000e+11 1.499161600000000000e+09 1.861174100000000000e+09
3.101237999999999939e+00 6.833517500000000000e+11 1.491800200000000000e+09 1.841427500000000000e+09
3.119588600000000156e+00 6.830665600000000000e+11 1.485444700000000000e+09 1.816514400000000000e+09
3.137938899999999975e+00 6.835584400000000000e+11 1.484449800000000000e+09 1.825111600000000000e+09
3.156289500000000192e+00 6.784509200000000000e+11 1.471365000000000000e+09 1.824239600000000000e+09
3.174640099999999965e+00 6.792363000000000000e+11 1.467629100000000000e+09 1.831411800000000000e+09
3.192990700000000182e+00 6.791477700000000000e+11 1.462691400000000000e+09 1.789503400000000000e+09
3.211341099999999837e+00 6.763127800000000000e+11 1.455236500000000000e+09 1.822680800000000000e+09
3.229691600000000218e+00 6.812310600000000000e+11 1.456646000000000000e+09 1.828498800000000000e+09
3.248042199999999990e+00 6.809215900000000000e+11 1.451405600000000000e+09 1.816183900000000000e+09
3.266392600000000090e+00 6.777958700000000000e+11 1.441671200000000000e+09 1.791906900000000000e+09
3.284743199999999863e+00 6.797578500000000000e+11 1.441720700000000000e+09 1.776392500000000000e+09
3.303093800000000080e+00 6.765233300000000000e+11 1.431514100000000000e+09 1.730059100000000000e+09
3.321444399999999852e+00 6.750634800000000000e+11 1.427429600000000000e+09 1.734302500000000000e+09
3.339794700000000116e+00 6.726148400000000000e+11 1.419744900000000000e+09 1.781479900000000000e+09
3.358145299999999889e+00 6.740638100000000000e+11 1.418958500000000000e+09 1.755041700000000000e+09
3.376495900000000105e+00 6.722725500000000000e+11 1.412286100000000000e+09 1.747678500000000000e+09
3.394846499999999878e+00 6.720092100000000000e+11 1.406922100000000000e+09 1.720048200000000000e+09
3.413196800000000142e+00 6.719809700000000000e+11 1.403175300000000000e+09 1.725772500000000000e+09
3.431547399999999914e+00 6.692836500000000000e+11 1.395698000000000000e+09 1.705040200000000000e+09
3.449898000000000131e+00 6.700456500000000000e+11 1.391104900000000000e+09 1.736216400000000000e+09
3.468248299999999951e+00 6.721108200000000000e+11 1.391869500000000000e+09 1.736860100000000000e+09
3.486598900000000167e+00 6.706850900000000000e+11 1.386975000000000000e+09 1.705398300000000000e+09
3.504949499999999940e+00 6.688559700000000000e+11 1.379095000000000000e+09 1.714040600000000000e+09
3.523300100000000157e+00 6.694048200000000000e+11 1.376641500000000000e+09 1.684815700000000000e+09
3.541650399999999976e+00 6.682641000000000000e+11 1.372510800000000000e+09 1.690802200000000000e+09
3.560001000000000193e+00 6.671357500000000000e+11 1.366165800000000000e+09 1.688472600000000000e+09
3.578351599999999966e+00 6.645363100000000000e+11 1.359450500000000000e+09 1.674115600000000000e+09
3.596702000000000066e+00 6.663737900000000000e+11 1.359190700000000000e+09 1.683626600000000000e+09
3.615052500000000002e+00 6.648537800000000000e+11 1.353354300000000000e+09 1.647457300000000000e+09
3.633403100000000219e+00 6.624504100000000000e+11 1.346409900000000000e+09 1.639884800000000000e+09
3.651753699999999991e+00 6.631888100000000000e+11 1.343971000000000000e+09 1.649416600000000000e+09
3.670104100000000091e+00 6.632880400000000000e+11 1.342558100000000000e+09 1.625444500000000000e+09
3.688454699999999864e+00 6.616329700000000000e+11 1.346255100000000000e+09 1.641802900000000000e+09
3.706805199999999800e+00 6.609670900000000000e+11 1.352120600000000000e+09 1.632858400000000000e+09
3.725155800000000017e+00 6.601742000000000000e+11 1.356596200000000000e+09 1.651981400000000000e+09
3.743506200000000117e+00 6.581791200000000000e+11 1.356705300000000000e+09 1.660714100000000000e+09
3.761856799999999890e+00 6.564421300000000000e+11 1.356047900000000000e+09 1.658554500000000000e+09
3.780207400000000106e+00 6.562277100000000000e+11 1.359401600000000000e+09 1.672496200000000000e+09
3.798557699999999926e+00 6.547452000000000000e+11 1.356603900000000000e+09 1.691150700000000000e+09
3.816908300000000143e+00 6.574700400000000000e+11 1.362176400000000000e+09 1.685007600000000000e+09
3.835258899999999915e+00 6.557343500000000000e+11 1.358942900000000000e+09 1.645240000000000000e+09
3.853609500000000132e+00 6.559606800000000000e+11 1.360193800000000000e+09 1.653718900000000000e+09
3.871959799999999952e+00 6.535009400000000000e+11 1.357331700000000000e+09 1.688867800000000000e+09
3.890310400000000168e+00 6.515326600000000000e+11 1.353568300000000000e+09 1.686957300000000000e+09
3.908660999999999941e+00 6.537397300000000000e+11 1.358977500000000000e+09 1.662177200000000000e+09
3.927011300000000205e+00 6.509155700000000000e+11 1.356548200000000000e+09 1.666932400000000000e+09
3.945361899999999977e+00 6.491422900000000000e+11 1.356831600000000000e+09 1.677214200000000000e+09
3.963712500000000194e+00 6.492886800000000000e+11 1.358017200000000000e+09 1.677686800000000000e+09
3.982063099999999967e+00 6.463168200000000000e+11 1.353015600000000000e+09 1.669575200000000000e+09
4.000413400000000230e+00 6.470600800000000000e+11 1.352891900000000000e+09 1.648071500000000000e+09
4.018764000000000003e+00 6.461098200000000000e+11 1.350985100000000000e+09 1.665621900000000000e+09
4.037114599999999776e+00 6.436216100000000000e+11 1.347227700000000000e+09 1.689223800000000000e+09
4.055465200000000436e+00 6.427665400000000000e+11 1.345740100000000000e+09 1.694254900000000000e+09
4.073815599999999648e+00 6.418755400000000000e+11 1.343936200000000000e+09 1.664629800000000000e+09
4.092166100000000029e+00 6.411164500000000000e+11 1.336917800000000000e+09 1.636532900000000000e+09
4.110516699999999801e+00 6.407983500000000000e+11 1.323447000000000000e+09 1.601294900000000000e+09
4.128867099999999901e+00 6.397086200000000000e+11 1.310373500000000000e+09 1.604881700000000000e+09
4.147217699999999674e+00 6.401797700000000000e+11 1.302696800000000000e+09 1.599991600000000000e+09
4.165568300000000335e+00 6.404174400000000000e+11 1.294514900000000000e+09 1.585448000000000000e+09
4.183918799999999827e+00 6.388363300000000000e+11 1.286076400000000000e+09 1.601351300000000000e+09
4.202269199999999927e+00 6.376989800000000000e+11 1.280074800000000000e+09 1.588813100000000000e+09
4.220619799999999699e+00 6.361056900000000000e+11 1.272187500000000000e+09 1.573568000000000000e+09
4.238970400000000360e+00 6.347569300000000000e+11 1.265929500000000000e+09 1.548280200000000000e+09
4.257320700000000180e+00 6.320640600000000000e+11 1.259525200000000000e+09 1.539633400000000000e+09
4.275671299999999952e+00 6.331132800000000000e+11 1.255351200000000000e+09 1.544113400000000000e+09
4.294021899999999725e+00 6.333280200000000000e+11 1.250443200000000000e+09 1.516756800000000000e+09
4.312372200000000433e+00 6.319087200000000000e+11 1.245346500000000000e+09 1.512397700000000000e+09
4.330722800000000206e+00 6.297061500000000000e+11 1.239659400000000000e+09 1.511665600000000000e+09
4.349073399999999978e+00 6.309807600000000000e+11 1.237762900000000000e+09 1.525370100000000000e+09
4.367423999999999751e+00 6.288028800000000000e+11 1.228774600000000000e+09 1.511737600000000000e+09
4.385774600000000412e+00 6.273126300000000000e+11 1.224016200000000000e+09 1.475808200000000000e+09
4.404125200000000184e+00 6.297128500000000000e+11 1.223377400000000000e+09 1.513273200000000000e+09
4.422475300000000331e+00 6.308640400000000000e+11 1.221240100000000000e+09 1.478450700000000000e+09
4.440825900000000104e+00 6.274042200000000000e+11 1.213347300000000000e+09 1.490367100000000000e+09
4.459176399999999596e+00 6.277747400000000000e+11 1.211727200000000000e+09 1.476018300000000000e+09
4.477527000000000257e+00 6.263040600000000000e+11 1.206265800000000000e+09 1.473091900000000000e+09
4.495877600000000029e+00 6.233702300000000000e+11 1.199460100000000000e+09 1.490116500000000000e+09
4.514228199999999802e+00 6.256456900000000000e+11 1.197884300000000000e+09 1.502696400000000000e+09
4.532578799999999575e+00 6.247961000000000000e+11 1.195898000000000000e+09 1.485530100000000000e+09
4.550929400000000236e+00 6.216395400000000000e+11 1.187587400000000000e+09 1.455922100000000000e+09
4.569279500000000382e+00 6.220566900000000000e+11 1.185196800000000000e+09 1.458760900000000000e+09
4.587630100000000155e+00 6.201361200000000000e+11 1.181293300000000000e+09 1.446309700000000000e+09
4.605980699999999928e+00 6.207115800000000000e+11 1.179245700000000000e+09 1.427428100000000000e+09
4.624331299999999700e+00 6.198454400000000000e+11 1.175194700000000000e+09 1.426821100000000000e+09
4.642681900000000361e+00 6.177229500000000000e+11 1.170065100000000000e+09 1.434941000000000000e+09
4.661032399999999853e+00 6.186031600000000000e+11 1.168474500000000000e+09 1.425728000000000000e+09
4.679382999999999626e+00 6.192100900000000000e+11 1.166331900000000000e+09 1.439902800000000000e+09
4.697733099999999773e+00 6.184330700000000000e+11 1.161268000000000000e+09 1.439513800000000000e+09
4.716083700000000434e+00 6.188480600000000000e+11 1.159434400000000000e+09 1.421338100000000000e+09
4.734434300000000206e+00 6.158347900000000000e+11 1.152393000000000000e+09 1.412931700000000000e+09
4.752784899999999979e+00 6.161413000000000000e+11 1.150327000000000000e+09 1.401098300000000000e+09
4.771135499999999752e+00 6.171974400000000000e+11 1.149839400000000000e+09 1.398065600000000000e+09
4.789486100000000413e+00 6.124621000000000000e+11 1.140392400000000000e+09 1.390764100000000000e+09
4.807836700000000185e+00 6.138370200000000000e+11 1.140381300000000000e+09 1.404159100000000000e+09
4.826186800000000332e+00 6.121449000000000000e+11 1.135473700000000000e+09 1.381778600000000000e+09
4.844537299999999824e+00 6.118635800000000000e+11 1.132548700000000000e+09 1.384057300000000000e+09
4.862887899999999597e+00 6.129828000000000000e+11 1.131310600000000000e+09 1.396800100000000000e+09
4.881238500000000258e+00 6.122175600000000000e+11 1.127702000000000000e+09 1.403781500000000000e+09
4.899589100000000030e+00 6.107217800000000000e+11 1.124359800000000000e+09 1.396623300000000000e+09
4.917939699999999803e+00 6.103337200000000000e+11 1.121626500000000000e+09 1.391749800000000000e+09
4.936290299999999576e+00 6.094844900000000000e+11 1.117823000000000000e+09 1.385245600000000000e+09
4.954640399999999723e+00 6.081622200000000000e+11 1.114797600000000000e+09 1.374356500000000000e+09
4.972991000000000383e+00 6.097444600000000000e+11 1.113670000000000000e+09 1.387903400000000000e+09
4.991341600000000156e+00 6.072979700000000000e+11 1.108750200000000000e+09 1.372803800000000000e+09
5.009692199999999929e+00 6.068271400000000000e+11 1.104767900000000000e+09 1.342587700000000000e+09
5.028042799999999701e+00 6.071170500000000000e+11 1.103736000000000000e+09 1.342275700000000000e+09
5.046393300000000082e+00 6.075090200000000000e+11 1.101389600000000000e+09 1.316518100000000000e+09
5.064743899999999854e+00 6.050040000000000000e+11 1.097386500000000000e+09 1.354225600000000000e+09
5.083094000000000001e+00 6.028039500000000000e+11 1.092853400000000000e+09 1.363043500000000000e+09
5.101444599999999774e+00 6.035160000000000000e+11 1.090197800000000000e+09 1.334926700000000000e+09
5.119795200000000435e+00 6.039224100000000000e+11 1.088865100000000000e+09 1.340395800000000000e+09
5.138145800000000207e+00 6.030484500000000000e+11 1.085968300000000000e+09 1.345488200000000000e+09
5.156496399999999980e+00 6.019703600000000000e+11 1.082230500000000000e+09 1.336948100000000000e+09
5.174846999999999753e+00 6.021517400000000000e+11 1.080078900000000000e+09 1.315698600000000000e+09
5.193197600000000413e+00 6.019130400000000000e+11 1.077604400000000000e+09 1.334497200000000000e+09
5.211547600000000280e+00 6.007942600000000000e+11 1.073978200000000000e+09 1.328355100000000000e+09
5.229898200000000053e+00 6.002967600000000000e+11 1.071292900000000000e+09 1.322748700000000000e+09
5.248248799999999825e+00 6.000971400000000000e+11 1.069104400000000000e+09 1.304595800000000000e+09
5.266599399999999598e+00 5.995491000000000000e+11 1.067826100000000000e+09 1.307717700000000000e+09
5.284950000000000259e+00 5.986220400000000000e+11 1.093503500000000000e+09 1.337024600000000000e+09
5.303300600000000031e+00 5.962961900000000000e+11 1.136692300000000000e+09 1.412109200000000000e+09
5.321651199999999804e+00 5.942098500000000000e+11 1.162539600000000000e+09 1.408170100000000000e+09
5.340001799999999577e+00 5.943551200000000000e+11 1.188109300000000000e+09 1.443473000000000000e+09
5.358351899999999723e+00 5.923284800000000000e+11 1.210211700000000000e+09 1.473954400000000000e+09
5.376702500000000384e+00 5.902197000000000000e+11 1.231667900000000000e+09 1.530949100000000000e+09
5.395053100000000157e+00 5.875818200000000000e+11 1.252433900000000000e+09 1.526217300000000000e+09
5.413403599999999649e+00 5.887612000000000000e+11 1.278633500000000000e+09 1.555193200000000000e+09
5.431754200000000310e+00 5.859068700000000000e+11 1.296737800000000000e+09 1.596696200000000000e+09
5.450104800000000083e+00 5.867307000000000000e+11 1.314921200000000000e+09 1.615482700000000000e+09
5.468455399999999855e+00 5.843132600000000000e+11 1.327220000000000000e+09 1.620308900000000000e+09
5.486805500000000002e+00 5.821470200000000000e+11 1.348124600000000000e+09 1.628182200000000000e+09
5.505156099999999775e+00 5.839017700000000000e+11 1.374313200000000000e+09 1.676457600000000000e+09
5.523506700000000436e+00 5.814591500000000000e+11 1.398546800000000000e+09 1.718896900000000000e+09
5.541857300000000208e+00 5.787519800000000000e+11 1.425866900000000000e+09 1.744422200000000000e+09
5.560207899999999981e+00 5.777536600000000000e+11 1.452149800000000000e+09 1.796924100000000000e+09
5.578558499999999754e+00 5.770761800000000000e+11 1.487316200000000000e+09 1.818007000000000000e+09
5.596909100000000414e+00 5.776610400000000000e+11 1.521934900000000000e+09 1.889673700000000000e+09
5.615259100000000281e+00 5.762035700000000000e+11 1.557705000000000000e+09 1.934470000000000000e+09
5.633609700000000053e+00 5.764051300000000000e+11 1.602521000000000000e+09 1.995828900000000000e+09
5.651960299999999826e+00 5.747377400000000000e+11 1.646610200000000000e+09 1.978697100000000000e+09
5.670310899999999599e+00 5.727502200000000000e+11 1.687444800000000000e+09 2.028054800000000000e+09
5.688661500000000260e+00 5.687175900000000000e+11 1.727725500000000000e+09 2.126795200000000000e+09
5.707012100000000032e+00 5.679121900000000000e+11 1.798161400000000000e+09 2.233143100000000000e+09
5.725362699999999805e+00 5.698116800000000000e+11 1.887782300000000000e+09 2.330556700000000000e+09
5.743712799999999952e+00 5.624793700000000000e+11 1.981178400000000000e+09 2.405612200000000000e+09
5.762063399999999724e+00 5.591412600000000000e+11 2.117593500000000000e+09 2.563703000000000000e+09
5.780414000000000385e+00 5.618889800000000000e+11 2.327411900000000000e+09 2.871108800000000000e+09
5.798764499999999877e+00 5.581778300000000000e+11 2.646294800000000000e+09 3.313252200000000000e+09
