7.340207999999999455e-02 8.657471000000000000e+12 1.706477300000000000e+11 4.109340700000000000e+12
9.175260000000000360e-02 1.209886700000000000e+13 9.334986900000000000e+10 6.490731000000000000e+11
1.101031299999999935e-01 1.382298200000000000e+13 5.102789100000000000e+10 1.702806700000000000e+11
1.284536500000000026e-01 1.384133400000000000e+13 3.729532400000000000e+10 8.369052800000000000e+10
1.468041599999999891e-01 1.314459800000000000e+13 3.127100800000000000e+10 7.409969200000000000e+10
1.651546899999999929e-01 1.232659700000000000e+13 2.783668400000000000e+10 6.346038400000000000e+10
1.835052000000000072e-01 1.148751100000000000e+13 2.496003900000000000e+10 5.830429900000000000e+10
2.018557300000000110e-01 1.040961400000000000e+13 2.288118800000000000e+10 6.273230900000000000e+10
2.202062599999999870e-01 9.177416000000000000e+12 2.144716300000000000e+10 6.050319300000000000e+10
2.385567700000000013e-01 7.762230800000000000e+12 1.943808800000000000e+10 4.703732100000000000e+10
2.569073000000000051e-01 6.366124500000000000e+12 1.724321500000000000e+10 4.039431300000000000e+10
2.752578199999999864e-01 5.122865800000000000e+12 1.504557700000000000e+10 2.981063900000000000e+10
2.936083199999999782e-01 4.000907800000000000e+12 1.242370300000000000e+10 2.491413800000000000e+10
3.119588500000000098e-01 3.189605700000000000e+12 1.035544100000000000e+10 1.910635800000000000e+10
3.303093799999999858e-01 2.572860200000000000e+12 8.875008200000000000e+09 1.466172900000000000e+10
3.486599000000000226e-01 2.095311800000000000e+12 7.667682800000000000e+09 1.263664300000000000e+10
3.670104000000000144e-01 1.783961800000000000e+12 6.866154500000000000e+09 1.025553600000000000e+10
3.853609299999999904e-01 1.600680300000000000e+12 6.321828900000000000e+09 8.946757100000000000e+09
4.037114600000000220e-01 1.462848000000000000e+12 5.841815100000000000e+09 8.291057200000000000e+09
4.220619800000000033e-01 1.389958900000000000e+12 5.565084500000000000e+09 7.582816900000000000e+09
4.404125099999999793e-01 1.352132600000000000e+12 5.340932400000000000e+09 7.241587200000000000e+09
4.587630100000000266e-01 1.312498800000000000e+12 5.130694200000000000e+09 6.970923000000000000e+09
4.771135400000000026e-01 1.275986800000000000e+12 4.950495200000000000e+09 6.621409700000000000e+09
4.954640599999999839e-01 1.263780200000000000e+12 4.817007100000000000e+09 6.592865500000000000e+09
5.138145899999999600e-01 1.237603300000000000e+12 4.659031700000000000e+09 6.201622100000000000e+09
5.321650900000000073e-01 1.224721600000000000e+12 4.572841200000000000e+09 6.049614100000000000e+09
5.505156500000000230e-01 1.206744200000000000e+12 4.450346700000000000e+09 5.743953600000000000e+09
5.688661799999999991e-01 1.177387800000000000e+12 4.289562400000000000e+09 5.231797600000000000e+09
5.872166399999999564e-01 1.178379500000000000e+12 4.227976100000000000e+09 5.302257400000000000e+09
6.055671700000000435e-01 1.171083400000000000e+12 4.136928800000000000e+09 5.318848100000000000e+09
6.239177000000000195e-01 1.161037500000000000e+12 4.045097500000000000e+09 5.201052500000000000e+09
6.422682199999999453e-01 1.150956900000000000e+12 3.960604000000000000e+09 4.998103700000000000e+09
6.606187500000000323e-01 1.154331800000000000e+12 3.902259700000000000e+09 4.928338500000000000e+09
6.789692800000000084e-01 1.158904400000000000e+12 3.857104400000000000e+09 4.960175400000000000e+09
6.973198099999999844e-01 1.162511200000000000e+12 3.805609900000000000e+09 4.840764600000000000e+09
7.156703399999999604e-01 1.160437600000000000e+12 3.743441600000000000e+09 4.918419100000000000e+09
7.340208000000000288e-01 1.165871600000000000e+12 3.712650000000000000e+09 5.004160700000000000e+09
7.523713300000000048e-01 1.163478400000000000e+12 3.653664100000000000e+09 4.743283800000000000e+09
7.707218599999999809e-01 1.164269900000000000e+12 3.607013400000000000e+09 4.569212500000000000e+09
7.890723800000000177e-01 1.164490500000000000e+12 3.563196500000000000e+09 4.626042800000000000e+09
8.074229099999999937e-01 1.165604000000000000e+12 3.515073200000000000e+09 4.614430200000000000e+09
8.257734399999999697e-01 1.159985200000000000e+12 3.462890000000000000e+09 4.623036700000000000e+09
8.441239699999999457e-01 1.159488400000000000e+12 3.423962500000000000e+09 4.652277700000000000e+09
8.624745000000000328e-01 1.160532700000000000e+12 3.380619100000000000e+09 4.314705500000000000e+09
8.808250199999999586e-01 1.159938400000000000e+12 3.343412700000000000e+09 4.324750000000000000e+09
8.991754899999999662e-01 1.154615200000000000e+12 3.297911500000000000e+09 4.285481800000000000e+09
9.175260200000000532e-01 1.144294200000000000e+12 3.248009600000000000e+09 4.165661800000000000e+09
9.358765399999999790e-01 1.141557800000000000e+12 3.212793100000000000e+09 4.165785000000000000e+09
9.542270699999999550e-01 1.135851900000000000e+12 3.167786500000000000e+09 3.992466000000000000e+09
9.725776000000000421e-01 1.135883100000000000e+12 3.131369300000000000e+09 3.982782000000000000e+09
9.909281300000000181e-01 1.134186100000000000e+12 3.102815900000000000e+09 3.950867600000000000e+09
1.009278700000000084e+00 1.121214900000000000e+12 3.061508800000000000e+09 3.803234600000000000e+09
1.027629200000000020e+00 1.113840900000000000e+12 3.013681700000000000e+09 3.662422900000000000e+09
1.045979699999999957e+00 1.108865900000000000e+12 2.984717200000000000e+09 3.687035700000000000e+09
1.064330199999999893e+00 1.103153300000000000e+12 2.946410600000000000e+09 3.698043700000000000e+09
1.082680700000000051e+00 1.098427500000000000e+12 2.918194300000000000e+09 3.730793300000000000e+09
1.101031300000000046e+00 1.088859100000000000e+12 2.911070900000000000e+09 3.774490500000000000e+09
1.119381799999999982e+00 1.081322000000000000e+12 2.900858100000000000e+09 3.678050600000000000e+09
1.137732399999999977e+00 1.073801600000000000e+12 2.888634300000000000e+09 3.636832300000000000e+09
1.156082800000000077e+00 1.071648900000000000e+12 2.893671100000000000e+09 3.587278600000000000e+09
1.174433300000000013e+00 1.059281000000000000e+12 2.868584600000000000e+09 3.575563000000000000e+09
1.192783900000000008e+00 1.056514500000000000e+12 2.864152900000000000e+09 3.657071500000000000e+09
1.211134300000000108e+00 1.051427900000000000e+12 2.853016700000000000e+09 3.534307000000000000e+09
1.229484900000000103e+00 1.040692700000000000e+12 2.832264400000000000e+09 3.581565400000000000e+09
1.247835400000000039e+00 1.033349000000000000e+12 2.814946900000000000e+09 3.657925300000000000e+09
1.266186000000000034e+00 1.028707600000000000e+12 2.802721900000000000e+09 3.699312300000000000e+09
1.284536399999999912e+00 1.021513800000000000e+12 2.783412100000000000e+09 3.688299100000000000e+09
1.302886900000000070e+00 1.017962800000000000e+12 2.767752400000000000e+09 3.612835400000000000e+09
1.321237500000000065e+00 1.013730400000000000e+12 2.776951700000000000e+09 3.610816900000000000e+09
1.339588000000000001e+00 1.008154100000000000e+12 2.762069000000000000e+09 3.513939100000000000e+09
1.357938599999999996e+00 9.939697900000000000e+11 2.733655000000000000e+09 3.526879800000000000e+09
1.376289000000000096e+00 9.952087700000000000e+11 2.734468600000000000e+09 3.387241300000000000e+09
1.394639600000000090e+00 9.933274300000000000e+11 2.723966400000000000e+09 3.427370500000000000e+09
1.412990100000000027e+00 9.810580700000000000e+11 2.702387100000000000e+09 3.378608800000000000e+09
1.431340700000000021e+00 9.751119300000000000e+11 2.683590800000000000e+09 3.376640800000000000e+09
1.449691099999999899e+00 9.656446300000000000e+11 2.652801600000000000e+09 3.308675200000000000e+09
1.468041600000000058e+00 9.613422700000000000e+11 2.646835100000000000e+09 3.245452300000000000e+09
1.486392200000000052e+00 9.670129700000000000e+11 2.647421200000000000e+09 3.351514200000000000e+09
1.504742699999999989e+00 9.588624400000000000e+11 2.609142400000000000e+09 3.396072200000000000e+09
1.523093199999999925e+00 9.508042000000000000e+11 2.554132400000000000e+09 3.297584000000000000e+09
1.541443700000000083e+00 9.438011100000000000e+11 2.491246900000000000e+09 3.080228600000000000e+09
1.559794300000000078e+00 9.399681100000000000e+11 2.450109100000000000e+09 3.138151200000000000e+09
1.578144800000000014e+00 9.376007500000000000e+11 2.422880400000000000e+09 3.036875800000000000e+09
1.596495400000000009e+00 9.307935200000000000e+11 2.385123200000000000e+09 3.059121600000000000e+09
1.614845800000000109e+00 9.273764600000000000e+11 2.354859400000000000e+09 2.904106400000000000e+09
1.633196300000000045e+00 9.259041700000000000e+11 2.331751100000000000e+09 2.879689800000000000e+09
1.651546900000000040e+00 9.247010600000000000e+11 2.307090900000000000e+09 2.904123300000000000e+09
1.669897299999999918e+00 9.168069200000000000e+11 2.281834300000000000e+09 2.925971200000000000e+09
1.688247899999999913e+00 9.076698400000000000e+11 2.255487300000000000e+09 2.885460700000000000e+09
1.706598400000000071e+00 9.056138700000000000e+11 2.228896300000000000e+09 2.869664300000000000e+09
1.724949000000000066e+00 9.040599100000000000e+11 2.213633200000000000e+09 2.745906500000000000e+09
1.743299500000000002e+00 8.969860500000000000e+11 2.187232700000000000e+09 2.734018400000000000e+09
1.761649999999999938e+00 8.959480100000000000e+11 2.170445100000000000e+09 2.767703300000000000e+09
1.780000500000000097e+00 8.935511300000000000e+11 2.154102000000000000e+09 2.735992000000000000e+09
1.798351000000000033e+00 8.855338400000000000e+11 2.126159700000000000e+09 2.701893200000000000e+09
1.816701600000000028e+00 8.852718400000000000e+11 2.112601100000000000e+09 2.706639900000000000e+09
1.835051999999999905e+00 8.868063700000000000e+11 2.103324100000000000e+09 2.740788000000000000e+09
1.853402599999999900e+00 8.799629000000000000e+11 2.076764900000000000e+09 2.643942300000000000e+09
1.871753100000000059e+00 8.786358200000000000e+11 2.062034600000000000e+09 2.662761400000000000e+09
1.890103700000000053e+00 8.757656900000000000e+11 2.045757300000000000e+09 2.645394000000000000e+09
1.908454099999999931e+00 8.731754800000000000e+11 2.031472400000000000e+09 2.591848500000000000e+09
1.926804699999999926e+00 8.711783100000000000e+11 2.015432100000000000e+09 2.543284100000000000e+09
1.945155200000000084e+00 8.723434600000000000e+11 2.008217000000000000e+09 2.530872900000000000e+09
1.963505700000000020e+00 8.648783400000000000e+11 1.985209100000000000e+09 2.507036300000000000e+09
1.981856300000000015e+00 8.632399400000000000e+11 1.977083800000000000e+09 2.434564500000000000e+09
2.000206700000000115e+00 8.630718700000000000e+11 1.967047700000000000e+09 2.466146600000000000e+09
2.018557299999999888e+00 8.649475400000000000e+11 1.951778700000000000e+09 2.452944100000000000e+09
2.036907799999999824e+00 8.622794600000000000e+11 1.939819000000000000e+09 2.434107500000000000e+09
2.055258400000000041e+00 8.586059400000000000e+11 1.927276300000000000e+09 2.422025300000000000e+09
2.073608800000000141e+00 8.555318700000000000e+11 1.911319300000000000e+09 2.378728200000000000e+09
2.091959399999999913e+00 8.555510800000000000e+11 1.904440600000000000e+09 2.402584600000000000e+09
2.110309899999999850e+00 8.560092300000000000e+11 1.892992000000000000e+09 2.391485700000000000e+09
2.128660399999999786e+00 8.557013500000000000e+11 1.884086900000000000e+09 2.352531800000000000e+09
2.147010900000000166e+00 8.576377700000000000e+11 1.877994400000000000e+09 2.336307600000000000e+09
2.165361400000000103e+00 8.555699100000000000e+11 1.861843300000000000e+09 2.337569100000000000e+09
2.183711999999999875e+00 8.544758200000000000e+11 1.851623000000000000e+09 2.359863300000000000e+09
2.202062600000000092e+00 8.512313000000000000e+11 1.840941800000000000e+09 2.301772800000000000e+09
2.220412899999999912e+00 8.505880500000000000e+11 1.831233700000000000e+09 2.338431400000000000e+09
2.238763500000000128e+00 8.531844600000000000e+11 1.824773100000000000e+09 2.328377900000000000e+09
2.257114099999999901e+00 8.520122800000000000e+11 1.814316600000000000e+09 2.317348600000000000e+09
2.275464700000000118e+00 8.519287300000000000e+11 1.808919800000000000e+09 2.302414300000000000e+09
2.293814999999999937e+00 8.475173500000000000e+11 1.796114500000000000e+09 2.278782000000000000e+09
2.312165600000000154e+00 8.485412600000000000e+11 1.784295400000000000e+09 2.192595100000000000e+09
2.330516199999999927e+00 8.476963200000000000e+11 1.773138300000000000e+09 2.259901800000000000e+09
2.348866600000000027e+00 8.424587400000000000e+11 1.764153300000000000e+09 2.229246600000000000e+09
2.367217199999999799e+00 8.394536500000000000e+11 1.755805700000000000e+09 2.220572700000000000e+09
2.385567700000000180e+00 8.363077700000000000e+11 1.742585200000000000e+09 2.223485300000000000e+09
2.403918299999999952e+00 8.355842600000000000e+11 1.730669400000000000e+09 2.165784700000000000e+09
2.422268700000000052e+00 8.338585800000000000e+11 1.723570900000000000e+09 2.227476600000000000e+09
2.440619299999999825e+00 8.340091600000000000e+11 1.718434200000000000e+09 2.151322600000000000e+09
2.458969900000000042e+00 8.326427600000000000e+11 1.708034400000000000e+09 2.130462700000000000e+09
2.477320199999999861e+00 8.275279700000000000e+11 1.697003700000000000e+09 2.129033700000000000e+09
2.495670800000000078e+00 8.286999900000000000e+11 1.691840700000000000e+09 2.087935600000000000e+09
2.514021399999999851e+00 8.256120300000000000e+11 1.680071900000000000e+09 2.104450100000000000e+09
2.532372000000000067e+00 8.216883100000000000e+11 1.669770900000000000e+09 2.105470100000000000e+09
2.550722299999999887e+00 8.181353900000000000e+11 1.658816300000000000e+09 2.057918200000000000e+09
2.569072900000000104e+00 8.206049900000000000e+11 1.654130500000000000e+09 2.031289800000000000e+09
2.587423499999999876e+00 8.175414600000000000e+11 1.644108800000000000e+09 2.073006600000000000e+09
2.605773800000000140e+00 8.182898500000000000e+11 1.638312600000000000e+09 2.052930300000000000e+09
2.624124399999999913e+00 8.157899900000000000e+11 1.626987600000000000e+09 2.018653300000000000e+09
2.642475000000000129e+00 8.141553300000000000e+11 1.622295000000000000e+09 2.028651900000000000e+09
2.660825599999999902e+00 8.155655900000000000e+11 1.618348300000000000e+09 2.036168300000000000e+09
2.679175900000000166e+00 8.185682900000000000e+11 1.614649400000000000e+09 2.039531700000000000e+09
2.697526499999999938e+00 8.132676400000000000e+11 1.602593500000000000e+09 2.021788600000000000e+09
2.715877100000000155e+00 8.128978200000000000e+11 1.597668600000000000e+09 2.026996900000000000e+09
2.734227699999999928e+00 8.117441700000000000e+11 1.589860900000000000e+09 2.007292400000000000e+09
2.752578000000000191e+00 8.099383100000000000e+11 1.580458400000000000e+09 1.981065600000000000e+09
2.770928599999999964e+00 8.100358300000000000e+11 1.573078300000000000e+09 1.976843100000000000e+09
2.789279200000000181e+00 8.085183400000000000e+11 1.567654900000000000e+09 1.958110100000000000e+09
2.807629599999999837e+00 8.085712400000000000e+11 1.563474700000000000e+09 1.958006500000000000e+09
2.825980200000000053e+00 8.076529900000000000e+11 1.554587900000000000e+09 1.941051800000000000e+09
2.844330799999999826e+00 8.091485900000000000e+11 1.551483200000000000e+09 1.955343000000000000e+09
2.862681300000000206e+00 8.085820800000000000e+11 1.544283100000000000e+09 1.935107900000000000e+09
2.881031699999999862e+00 8.067921300000000000e+11 1.538172400000000000e+09 1.951453800000000000e+09
2.899382300000000079e+00 8.040361800000000000e+11 1.530637000000000000e+09 1.899266000000000000e+09
2.917732899999999852e+00 8.020990200000000000e+11 1.523157600000000000e+09 1.935189500000000000e+09
2.936083200000000115e+00 8.011830900000000000e+11 1.516521300000000000e+09 1.924377500000000000e+09
2.954433799999999888e+00 8.019939500000000000e+11 1.513711300000000000e+09 1.880508700000000000e+09
2.972784400000000105e+00 7.984697300000000000e+11 1.500986600000000000e+09 1.881349500000000000e+09
2.991134999999999877e+00 7.977378500000000000e+11 1.500734500000000000e+09 1.893966700000000000e+09
3.009485300000000141e+00 7.943261600000000000e+11 1.490682200000000000e+09 1.877971500000000000e+09
3.027835899999999913e+00 7.960960900000000000e+11 1.485364600000000000e+09 1.861534000000000000e+09
3.046186500000000130e+00 7.973755700000000000e+11 1.483319800000000000e+09 1.832158000000000000e+09
3.064537099999999903e+00 7.994305000000000000e+11 1.482299900000000000e+09 1.861654900000000000e+09
3.082887400000000167e+00 7.982279900000000000e+11 1.474562700000000000e+09 1.869056100000000000e+09
3.101237999999999939e+00 7.973843100000000000e+11 1.469959900000000000e+09 1.827138700000000000e+09
3.119588600000000156e+00 7.939837600000000000e+11 1.460487800000000000e+09 1.799614600000000000e+09
3.137938899999999975e+00 7.960413900000000000e+11 1.459034200000000000e+09 1.854678700000000000e+09
3.156289500000000192e+00 7.946270200000000000e+11 1.453240100000000000e+09 1.852694700000000000e+09
3.174640099999999965e+00 7.919353300000000000e+11 1.446217200000000000e+09 1.823042500000000000e+09
3.192990700000000182e+00 7.908483500000000000e+11 1.437967500000000000e+09 1.792835200000000000e+09
3.211341099999999837e+00 7.916267800000000000e+11 1.436661400000000000e+09 1.829258900000000000e+09
3.229691600000000218e+00 7.911867100000000000e+11 1.431152400000000000e+09 1.818771800000000000e+09
3.248042199999999990e+00 7.887856400000000000e+11 1.425487400000000000e+09 1.774802300000000000e+09
3.266392600000000090e+00 7.881171300000000000e+11 1.420777800000000000e+09 1.781004400000000000e+09
3.284743199999999863e+00 7.893213700000000000e+11 1.419192200000000000e+09 1.779246700000000000e+09
3.303093800000000080e+00 7.836094200000000000e+11 1.407894500000000000e+09 1.724582300000000000e+09
3.321444399999999852e+00 7.856933500000000000e+11 1.404955500000000000e+09 1.761220800000000000e+09
3.339794700000000116e+00 7.870029400000000000e+11 1.401159400000000000e+09 1.735065900000000000e+09
3.358145299999999889e+00 7.889764200000000000e+11 1.400372700000000000e+09 1.719442500000000000e+09
3.376495900000000105e+00 7.882118900000000000e+11 1.395511800000000000e+09 1.754645300000000000e+09
3.394846499999999878e+00 7.867426700000000000e+11 1.390337900000000000e+09 1.733323400000000000e+09
3.413196800000000142e+00 7.863197900000000000e+11 1.386720600000000000e+09 1.778774700000000000e+09
3.431547399999999914e+00 7.865585400000000000e+11 1.382290300000000000e+09 1.754085500000000000e+09
3.449898000000000131e+00 7.850886500000000000e+11 1.375608000000000000e+09 1.729342400000000000e+09
3.468248299999999951e+00 7.828335200000000000e+11 1.369093600000000000e+09 1.719328100000000000e+09
3.486598900000000167e+00 7.835991100000000000e+11 1.367832200000000000e+09 1.727314600000000000e+09
3.504949499999999940e+00 7.816239100000000000e+11 1.362182000000000000e+09 1.730378400000000000e+09
3.523300100000000157e+00 7.815978300000000000e+11 1.357317000000000000e+09 1.707296600000000000e+09
3.541650399999999976e+00 7.811119500000000000e+11 1.352816500000000000e+09 1.711137800000000000e+09
3.560001000000000193e+00 7.816787600000000000e+11 1.348615700000000000e+09 1.716340700000000000e+09
3.578351599999999966e+00 7.792378600000000000e+11 1.342480100000000000e+09 1.673069100000000000e+09
3.596702000000000066e+00 7.791399700000000000e+11 1.340332500000000000e+09 1.689777700000000000e+09
3.615052500000000002e+00 7.790978200000000000e+11 1.337369500000000000e+09 1.703017600000000000e+09
3.633403100000000219e+00 7.753235600000000000e+11 1.328855000000000000e+09 1.678030300000000000e+09
3.651753699999999991e+00 7.754475300000000000e+11 1.326237200000000000e+09 1.659704600000000000e+09
3.670104100000000091e+00 7.739258600000000000e+11 1.323677900000000000e+09 1.649972800000000000e+09
3.688454699999999864e+00 7.765916900000000000e+11 1.332276000000000000e+09 1.670915400000000000e+09
3.706805199999999800e+00 7.763090700000000000e+11 1.336575400000000000e+09 1.670859500000000000e+09
3.725155800000000017e+00 7.756269500000000000e+11 1.339846500000000000e+09 1.680935300000000000e+09
3.743506200000000117e+00 7.748336500000000000e+11 1.343790100000000000e+09 1.670996600000000000e+09
3.761856799999999890e+00 7.744409500000000000e+11 1.344259100000000000e+09 1.657711600000000000e+09
3.780207400000000106e+00 7.717379100000000000e+11 1.343391800000000000e+09 1.712493000000000000e+09
3.798557699999999926e+00 7.735087300000000000e+11 1.345383800000000000e+09 1.708553000000000000e+09
3.816908300000000143e+00 7.734565700000000000e+11 1.346511000000000000e+09 1.683363700000000000e+09
3.835258899999999915e+00 7.724987900000000000e+11 1.346410600000000000e+09 1.713517700000000000e+09
3.853609500000000132e+00 7.696985200000000000e+11 1.344198500000000000e+09 1.752657300000000000e+09
3.871959799999999952e+00 7.710519100000000000e+11 1.345179400000000000e+09 1.711106600000000000e+09
3.890310400000000168e+00 7.682228800000000000e+11 1.340715900000000000e+09 1.680650700000000000e+09
3.908660999999999941e+00 7.682326700000000000e+11 1.343017200000000000e+09 1.693951500000000000e+09
3.927011300000000205e+00 7.682399900000000000e+11 1.345762500000000000e+09 1.723102400000000000e+09
3.945361899999999977e+00 7.656427600000000000e+11 1.344710500000000000e+09 1.699960500000000000e+09
3.963712500000000194e+00 7.648552800000000000e+11 1.343425700000000000e+09 1.704690100000000000e+09
3.982063099999999967e+00 7.666114500000000000e+11 1.343965900000000000e+09 1.673048400000000000e+09
4.000413400000000230e+00 7.634235800000000000e+11 1.340524000000000000e+09 1.639550300000000000e+09
4.018764000000000003e+00 7.624554100000000000e+11 1.340173000000000000e+09 1.668647900000000000e+09
4.037114599999999776e+00 7.617279400000000000e+11 1.337575300000000000e+09 1.672197000000000000e+09
4.055465200000000436e+00 7.620358200000000000e+11 1.337825200000000000e+09 1.682012000000000000e+09
4.073815599999999648e+00 7.620027900000000000e+11 1.337765500000000000e+09 1.697012900000000000e+09
4.092166100000000029e+00 7.615098100000000000e+11 1.330320600000000000e+09 1.671764300000000000e+09
4.110516699999999801e+00 7.599365700000000000e+11 1.313892700000000000e+09 1.625053800000000000e+09
4.128867099999999901e+00 7.575550100000000000e+11 1.299705100000000000e+09 1.625378700000000000e+09
4.147217699999999674e+00 7.585163000000000000e+11 1.293215500000000000e+09 1.653474700000000000e+09
4.165568300000000335e+00 7.556375000000000000e+11 1.281332500000000000e+09 1.653651300000000000e+09
4.183918799999999827e+00 7.544179500000000000e+11 1.274355000000000000e+09 1.624681600000000000e+09
4.202269199999999927e+00 7.525043200000000000e+11 1.267571400000000000e+09 1.581424200000000000e+09
4.220619799999999699e+00 7.546757600000000000e+11 1.264257300000000000e+09 1.573739000000000000e+09
4.238970400000000360e+00 7.530243500000000000e+11 1.256456600000000000e+09 1.597618100000000000e+09
4.257320700000000180e+00 7.537179000000000000e+11 1.254900300000000000e+09 1.606794300000000000e+09
4.275671299999999952e+00 7.521374100000000000e+11 1.248585300000000000e+09 1.572395600000000000e+09
4.294021899999999725e+00 7.519937900000000000e+11 1.243331300000000000e+09 1.541445800000000000e+09
4.312372200000000433e+00 7.499567900000000000e+11 1.236864600000000000e+09 1.541763800000000000e+09
4.330722800000000206e+00 7.492104800000000000e+11 1.232983800000000000e+09 1.540545300000000000e+09
4.349073399999999978e+00 7.519242100000000000e+11 1.231702700000000000e+09 1.536382300000000000e+09
4.367423999999999751e+00 7.502691500000000000e+11 1.224537300000000000e+09 1.534206300000000000e+09
4.385774600000000412e+00 7.492065200000000000e+11 1.222236200000000000e+09 1.523545800000000000e+09
4.404125200000000184e+00 7.493526900000000000e+11 1.218900100000000000e+09 1.507931800000000000e+09
4.422475300000000331e+00 7.472686900000000000e+11 1.212695500000000000e+09 1.516688400000000000e+09
4.440825900000000104e+00 7.454962300000000000e+11 1.207315800000000000e+09 1.485921800000000000e+09
4.459176399999999596e+00 7.455407700000000000e+11 1.204069900000000000e+09 1.483120100000000000e+09
4.477527000000000257e+00 7.447119600000000000e+11 1.199143200000000000e+09 1.511480800000000000e+09
4.495877600000000029e+00 7.449159000000000000e+11 1.196384500000000000e+09 1.501404300000000000e+09
4.514228199999999802e+00 7.451492700000000000e+11 1.192822700000000000e+09 1.480469600000000000e+09
4.532578799999999575e+00 7.431459700000000000e+11 1.189230200000000000e+09 1.469838600000000000e+09
4.550929400000000236e+00 7.433757600000000000e+11 1.185395400000000000e+09 1.509261600000000000e+09
4.569279500000000382e+00 7.436334200000000000e+11 1.183403900000000000e+09 1.483119700000000000e+09
4.587630100000000155e+00 7.424903200000000000e+11 1.179836800000000000e+09 1.488057000000000000e+09
4.605980699999999928e+00 7.411600200000000000e+11 1.174203600000000000e+09 1.474635100000000000e+09
4.624331299999999700e+00 7.428209800000000000e+11 1.174077600000000000e+09 1.461311400000000000e+09
4.642681900000000361e+00 7.398225400000000000e+11 1.167907900000000000e+09 1.447387500000000000e+09
4.661032399999999853e+00 7.402263000000000000e+11 1.164598300000000000e+09 1.446141700000000000e+09
4.679382999999999626e+00 7.399017600000000000e+11 1.162903000000000000e+09 1.439350500000000000e+09
4.697733099999999773e+00 7.382826300000000000e+11 1.157729100000000000e+09 1.465522000000000000e+09
4.716083700000000434e+00 7.399510800000000000e+11 1.156686500000000000e+09 1.484812000000000000e+09
4.734434300000000206e+00 7.393710400000000000e+11 1.152128800000000000e+09 1.454249900000000000e+09
4.752784899999999979e+00 7.398874800000000000e+11 1.150039600000000000e+09 1.442081200000000000e+09
4.771135499999999752e+00 7.397981800000000000e+11 1.147659800000000000e+09 1.432385400000000000e+09
4.789486100000000413e+00 7.368534700000000000e+11 1.141061500000000000e+09 1.437465400000000000e+09
4.807836700000000185e+00 7.367897300000000000e+11 1.140029000000000000e+09 1.444049200000000000e+09
4.826186800000000332e+00 7.363889700000000000e+11 1.136221700000000000e+09 1.436659500000000000e+09
4.844537299999999824e+00 7.354875300000000000e+11 1.133137400000000000e+09 1.424760400000000000e+09
4.862887899999999597e+00 7.321680600000000000e+11 1.128106300000000000e+09 1.413513500000000000e+09
4.881238500000000258e+00 7.318790100000000000e+11 1.125675200000000000e+09 1.417871600000000000e+09
4.899589100000000030e+00 7.325346000000000000e+11 1.123647100000000000e+09 1.423410200000000000e+09
4.917939699999999803e+00 7.312179700000000000e+11 1.119880500000000000e+09 1.431530400000000000e+09
4.936290299999999576e+00 7.315334700000000000e+11 1.117608600000000000e+09 1.398448600000000000e+09
4.954640399999999723e+00 7.305215900000000000e+11 1.114065300000000000e+09 1.400801500000000000e+09
4.972991000000000383e+00 7.306253800000000000e+11 1.110890400000000000e+09 1.402237200000000000e+09
4.991341600000000156e+00 7.301677500000000000e+11 1.109485200000000000e+09 1.372103700000000000e+09
5.009692199999999929e+00 7.317114700000000000e+11 1.107732700000000000e+09 1.385795000000000000e+09
5.028042799999999701e+00 7.309215300000000000e+11 1.105043300000000000e+09 1.387816600000000000e+09
5.046393300000000082e+00 7.285994500000000000e+11 1.099611000000000000e+09 1.384724300000000000e+09
5.064743899999999854e+00 7.272418000000000000e+11 1.096663400000000000e+09 1.375301300000000000e+09
5.083094000000000001e+00 7.269535700000000000e+11 1.094458300000000000e+09 1.383999700000000000e+09
5.101444599999999774e+00 7.274480400000000000e+11 1.092042500000000000e+09 1.361800800000000000e+09
5.119795200000000435e+00 7.261566000000000000e+11 1.088497900000000000e+09 1.384949800000000000e+09
5.138145800000000207e+00 7.264112000000000000e+11 1.086545400000000000e+09 1.371189900000000000e+09
5.156496399999999980e+00 7.252401500000000000e+11 1.082918200000000000e+09 1.367606200000000000e+09
5.174846999999999753e+00 7.241138500000000000e+11 1.080559500000000000e+09 1.348078800000000000e+09
5.193197600000000413e+00 7.219126800000000000e+11 1.076117300000000000e+09 1.341487700000000000e+09
5.211547600000000280e+00 7.232861700000000000e+11 1.075248200000000000e+09 1.343326100000000000e+09
5.229898200000000053e+00 7.201841600000000000e+11 1.070097900000000000e+09 1.361780500000000000e+09
5.248248799999999825e+00 7.224863600000000000e+11 1.070831100000000000e+09 1.356948700000000000e+09
5.266599399999999598e+00 7.218605200000000000e+11 1.068924700000000000e+09 1.343474400000000000e+09
5.284950000000000259e+00 7.203188900000000000e+11 1.093952000000000000e+09 1.364425900000000000e+09
5.303300600000000031e+00 7.165217600000000000e+11 1.136207400000000000e+09 1.427380100000000000e+09
5.321651199999999804e+00 7.155414100000000000e+11 1.164514000000000000e+09 1.443077900000000000e+09
5.340001799999999577e+00 7.158699900000000000e+11 1.189471100000000000e+09 1.475641100000000000e+09
5.358351899999999723e+00 7.153250000000000000e+11 1.212018800000000000e+09 1.504414300000000000e+09
5.376702500000000384e+00 7.168596800000000000e+11 1.238615100000000000e+09 1.557033200000000000e+09
5.395053100000000157e+00 7.134575600000000000e+11 1.259248400000000000e+09 1.582782500000000000e+09
5.413403599999999649e+00 7.104591200000000000e+11 1.279611500000000000e+09 1.625296300000000000e+09
5.431754200000000310e+00 7.124571100000000000e+11 1.303361100000000000e+09 1.629634500000000000e+09
5.450104800000000083e+00 7.113802900000000000e+11 1.318917100000000000e+09 1.644351600000000000e+09
5.468455399999999855e+00 7.076918100000000000e+11 1.332204900000000000e+09 1.674454600000000000e+09
5.486805500000000002e+00 7.080876400000000000e+11 1.356103800000000000e+09 1.718266000000000000e+09
5.505156099999999775e+00 7.064603000000000000e+11 1.377327900000000000e+09 1.736540900000000000e+09
5.523506700000000436e+00 7.043089000000000000e+11 1.403096300000000000e+09 1.729173300000000000e+09
5.541857300000000208e+00 7.007894600000000000e+11 1.429009400000000000e+09 1.757969800000000000e+09
5.560207899999999981e+00 6.987538100000000000e+11 1.457575400000000000e+09 1.833019800000000000e+09
5.578558499999999754e+00 6.947598500000000000e+11 1.487822100000000000e+09 1.881470700000000000e+09
5.596909100000000414e+00 6.963339800000000000e+11 1.521871600000000000e+09 1.871501800000000000e+09
5.615259100000000281e+00 6.967269700000000000e+11 1.562658900000000000e+09 1.942021000000000000e+09
5.633609700000000053e+00 6.916064200000000000e+11 1.599894300000000000e+09 2.038946800000000000e+09
5.651960299999999826e+00 6.909921600000000000e+11 1.647799400000000000e+09 2.107518900000000000e+09
5.670310899999999599e+00 6.868669000000000000e+11 1.684755600000000000e+09 2.092795100000000000e+09
5.688661500000000260e+00 6.874589700000000000e+11 1.731242300000000000e+09 2.118507900000000000e+09
5.707012100000000032e+00 6.856051300000000000e+11 1.800334700000000000e+09 2.260157200000000000e+09
5.725362699999999805e+00 6.846942000000000000e+11 1.883487300000000000e+09 2.415201200000000000e+09
5.743712799999999952e+00 6.830346500000000000e+11 1.992449300000000000e+09 2.607591200000000000e+09
5.762063399999999724e+00 6.787217600000000000e+11 2.131693800000000000e+09 2.691166600000000000e+09
5.780414000000000385e+00 6.768120900000000000e+11 2.324523100000000000e+09 2.876831100000000000e+09
5.798764499999999877e+00 6.729133400000000000e+11 2.644317100000000000e+09 3.285862000000000000e+09
